FCI gs energy -1.500000 
FCI gs wfn 
01 0.707106781187 0.000000000000 I 
10 -0.707106781187 -0.000000000000 I 
FCI ITE
0.000000 -0.500000 1.000000 0.714142 
0.010000 -0.519997 0.999600 0.721103 
0.020000 -0.539979 0.998402 0.727986 
0.030000 -0.559928 0.996409 0.734789 
0.040000 -0.579830 0.993627 0.741508 
0.050000 -0.599668 0.990066 0.748140 
0.060000 -0.619427 0.985737 0.754683 
0.070000 -0.639092 0.980653 0.761134 
0.080000 -0.658649 0.974831 0.767490 
0.090000 -0.678081 0.968287 0.773749 
0.100000 -0.697375 0.961043 0.779910 
0.110000 -0.716518 0.953120 0.785969 
0.120000 -0.735496 0.944542 0.791927 
0.130000 -0.754296 0.935334 0.797780 
0.140000 -0.772905 0.925523 0.803527 
0.150000 -0.791313 0.915137 0.809168 
0.160000 -0.809507 0.904205 0.814702 
0.170000 -0.827477 0.892759 0.820126 
0.180000 -0.845214 0.880827 0.825442 
0.190000 -0.862707 0.868443 0.830647 
0.200000 -0.879949 0.855639 0.835742 
0.210000 -0.896930 0.842446 0.840727 
0.220000 -0.913644 0.828898 0.845602 
0.230000 -0.930084 0.815028 0.850366 
0.240000 -0.946244 0.800867 0.855020 
0.250000 -0.962117 0.786448 0.859564 
0.260000 -0.977700 0.771803 0.863999 
0.270000 -0.992988 0.756963 0.868325 
0.280000 -1.007977 0.741959 0.872544 
0.290000 -1.022665 0.726821 0.876655 
0.300000 -1.037050 0.711578 0.880661 
0.310000 -1.051128 0.696258 0.884562 
0.320000 -1.064900 0.680888 0.888359 
0.330000 -1.078363 0.665496 0.892054 
0.340000 -1.091519 0.650105 0.895647 
0.350000 -1.104368 0.634740 0.899141 
0.360000 -1.116909 0.619423 0.902537 
0.370000 -1.129145 0.604176 0.905836 
0.380000 -1.141077 0.589020 0.909040 
0.390000 -1.152707 0.573974 0.912150 
0.400000 -1.164037 0.559055 0.915169 
0.410000 -1.175070 0.544281 0.918098 
0.420000 -1.185809 0.529666 0.920939 
0.430000 -1.196258 0.515225 0.923693 
0.440000 -1.206419 0.500972 0.926363 
0.450000 -1.216298 0.486917 0.928950 
0.460000 -1.225897 0.473073 0.931456 
0.470000 -1.235222 0.459448 0.933884 
0.480000 -1.244277 0.446052 0.936233 
0.490000 -1.253066 0.432892 0.938508 
0.500000 -1.261594 0.419974 0.940709 
0.510000 -1.269867 0.407306 0.942838 
0.520000 -1.277888 0.394890 0.944898 
0.530000 -1.285664 0.382732 0.946889 
0.540000 -1.293199 0.370835 0.948815 
0.550000 -1.300499 0.359201 0.950676 
0.560000 -1.307569 0.347832 0.952474 
0.570000 -1.314414 0.336730 0.954212 
0.580000 -1.321040 0.325894 0.955890 
0.590000 -1.327452 0.315324 0.957511 
0.600000 -1.333655 0.305020 0.959076 
0.610000 -1.339654 0.294981 0.960587 
0.620000 -1.345456 0.285205 0.962046 
0.630000 -1.351064 0.275690 0.963453 
0.640000 -1.356485 0.266434 0.964812 
0.650000 -1.361723 0.257433 0.966122 
0.660000 -1.366784 0.248686 0.967386 
0.670000 -1.371672 0.240187 0.968605 
0.680000 -1.376393 0.231935 0.969781 
0.690000 -1.380951 0.223925 0.970915 
0.700000 -1.385352 0.216152 0.972008 
0.710000 -1.389599 0.208614 0.973062 
0.720000 -1.393698 0.201304 0.974077 
0.730000 -1.397653 0.194220 0.975056 
0.740000 -1.401468 0.187355 0.975999 
0.750000 -1.405148 0.180707 0.976908 
0.760000 -1.408698 0.174269 0.977783 
0.770000 -1.412120 0.168036 0.978627 
0.780000 -1.415420 0.162005 0.979439 
0.790000 -1.418602 0.156171 0.980222 
0.800000 -1.421669 0.150527 0.980975 
0.810000 -1.424624 0.145070 0.981701 
0.820000 -1.427473 0.139795 0.982399 
0.830000 -1.430217 0.134696 0.983072 
0.840000 -1.432862 0.129769 0.983720 
0.850000 -1.435409 0.125010 0.984343 
0.860000 -1.437863 0.120413 0.984943 
0.870000 -1.440227 0.115974 0.985521 
0.880000 -1.442503 0.111688 0.986077 
0.890000 -1.444695 0.107551 0.986612 
0.900000 -1.446806 0.103558 0.987127 
0.910000 -1.448838 0.099706 0.987622 
0.920000 -1.450795 0.095989 0.988099 
0.930000 -1.452679 0.092403 0.988558 
0.940000 -1.454492 0.088945 0.988999 
0.950000 -1.456237 0.085610 0.989423 
0.960000 -1.457917 0.082394 0.989832 
0.970000 -1.459534 0.079294 0.990225 
0.980000 -1.461090 0.076306 0.990603 
0.990000 -1.462587 0.073426 0.990966 
1.000000 -1.464028 0.070651 0.991316 
1.010000 -1.465414 0.067976 0.991652 
1.020000 -1.466747 0.065400 0.991975 
1.030000 -1.468030 0.062917 0.992286 
1.040000 -1.469265 0.060526 0.992585 
1.050000 -1.470452 0.058223 0.992873 
1.060000 -1.471594 0.056005 0.993150 
1.070000 -1.472693 0.053869 0.993416 
1.080000 -1.473749 0.051812 0.993671 
1.090000 -1.474766 0.049832 0.993917 
1.100000 -1.475743 0.047925 0.994154 
1.110000 -1.476683 0.046090 0.994381 
1.120000 -1.477587 0.044323 0.994600 
1.130000 -1.478457 0.042623 0.994810 
1.140000 -1.479293 0.040986 0.995012 
1.150000 -1.480096 0.039411 0.995206 
1.160000 -1.480869 0.037895 0.995393 
1.170000 -1.481613 0.036437 0.995572 
1.180000 -1.482327 0.035033 0.995745 
1.190000 -1.483014 0.033683 0.995910 
1.200000 -1.483675 0.032384 0.996070 
1.210000 -1.484310 0.031134 0.996223 
1.220000 -1.484921 0.029932 0.996370 
1.230000 -1.485508 0.028775 0.996512 
1.240000 -1.486072 0.027662 0.996648 
1.250000 -1.486614 0.026592 0.996779 
1.260000 -1.487136 0.025563 0.996904 
1.270000 -1.487637 0.024573 0.997025 
1.280000 -1.488119 0.023621 0.997141 
1.290000 -1.488582 0.022705 0.997253 
1.300000 -1.489027 0.021825 0.997360 
1.310000 -1.489455 0.020978 0.997463 
1.320000 -1.489867 0.020164 0.997563 
1.330000 -1.490262 0.019381 0.997658 
1.340000 -1.490642 0.018628 0.997749 
1.350000 -1.491007 0.017904 0.997837 
1.360000 -1.491359 0.017208 0.997922 
1.370000 -1.491696 0.016539 0.998003 
1.380000 -1.492020 0.015896 0.998081 
1.390000 -1.492332 0.015277 0.998156 
1.400000 -1.492632 0.014683 0.998228 
1.410000 -1.492919 0.014111 0.998298 
1.420000 -1.493196 0.013561 0.998364 
1.430000 -1.493462 0.013033 0.998428 
1.440000 -1.493718 0.012525 0.998490 
1.450000 -1.493963 0.012037 0.998549 
1.460000 -1.494199 0.011568 0.998606 
1.470000 -1.494426 0.011117 0.998660 
1.480000 -1.494644 0.010683 0.998713 
1.490000 -1.494853 0.010267 0.998763 
1.500000 -1.495055 0.009866 0.998811 
1.510000 -1.495248 0.009481 0.998858 
1.520000 -1.495434 0.009111 0.998903 
1.530000 -1.495613 0.008755 0.998946 
1.540000 -1.495784 0.008413 0.998987 
1.550000 -1.495949 0.008085 0.999026 
1.560000 -1.496108 0.007769 0.999065 
1.570000 -1.496260 0.007466 0.999101 
1.580000 -1.496407 0.007174 0.999136 
1.590000 -1.496547 0.006894 0.999170 
1.600000 -1.496682 0.006624 0.999203 
1.610000 -1.496812 0.006365 0.999234 
1.620000 -1.496937 0.006116 0.999264 
1.630000 -1.497057 0.005877 0.999293 
1.640000 -1.497172 0.005648 0.999321 
1.650000 -1.497283 0.005427 0.999347 
1.660000 -1.497389 0.005214 0.999373 
1.670000 -1.497492 0.005011 0.999397 
1.680000 -1.497590 0.004815 0.999421 
1.690000 -1.497684 0.004626 0.999444 
1.700000 -1.497775 0.004445 0.999465 
1.710000 -1.497862 0.004271 0.999486 
1.720000 -1.497946 0.004104 0.999506 
1.730000 -1.498026 0.003944 0.999526 
1.740000 -1.498104 0.003789 0.999544 
1.750000 -1.498178 0.003641 0.999562 
1.760000 -1.498249 0.003498 0.999579 
1.770000 -1.498318 0.003361 0.999596 
1.780000 -1.498384 0.003230 0.999612 
1.790000 -1.498447 0.003103 0.999627 
1.800000 -1.498508 0.002982 0.999642 
1.810000 -1.498566 0.002865 0.999656 
1.820000 -1.498623 0.002753 0.999669 
1.830000 -1.498677 0.002645 0.999682 
1.840000 -1.498728 0.002542 0.999695 
1.850000 -1.498778 0.002442 0.999706 
1.860000 -1.498826 0.002346 0.999718 
1.870000 -1.498872 0.002254 0.999729 
1.880000 -1.498916 0.002166 0.999740 
1.890000 -1.498959 0.002081 0.999750 
1.900000 -1.499000 0.002000 0.999760 
1.910000 -1.499039 0.001921 0.999769 
1.920000 -1.499076 0.001846 0.999778 
1.930000 -1.499113 0.001774 0.999787 
1.940000 -1.499147 0.001704 0.999795 
1.950000 -1.499181 0.001638 0.999803 
1.960000 -1.499213 0.001573 0.999811 
1.970000 -1.499244 0.001512 0.999818 
1.980000 -1.499273 0.001453 0.999825 
1.990000 -1.499302 0.001396 0.999832 
2.000000 -1.499329 0.001341 0.999839 
2.010000 -1.499356 0.001288 0.999845 
2.020000 -1.499381 0.001238 0.999851 
2.030000 -1.499405 0.001189 0.999857 
2.040000 -1.499428 0.001143 0.999863 
2.050000 -1.499451 0.001098 0.999868 
2.060000 -1.499472 0.001055 0.999873 
2.070000 -1.499493 0.001014 0.999878 
2.080000 -1.499513 0.000974 0.999883 
2.090000 -1.499532 0.000936 0.999888 
2.100000 -1.499550 0.000899 0.999892 
2.110000 -1.499568 0.000864 0.999896 
2.120000 -1.499585 0.000830 0.999900 
2.130000 -1.499601 0.000797 0.999904 
2.140000 -1.499617 0.000766 0.999908 
2.150000 -1.499632 0.000736 0.999912 
2.160000 -1.499646 0.000707 0.999915 
2.170000 -1.499660 0.000680 0.999918 
2.180000 -1.499673 0.000653 0.999922 
2.190000 -1.499686 0.000627 0.999925 
2.200000 -1.499699 0.000603 0.999928 
2.210000 -1.499710 0.000579 0.999930 
2.220000 -1.499722 0.000556 0.999933 
2.230000 -1.499733 0.000535 0.999936 
2.240000 -1.499743 0.000514 0.999938 
2.250000 -1.499753 0.000494 0.999941 
2.260000 -1.499763 0.000474 0.999943 
2.270000 -1.499772 0.000456 0.999945 
2.280000 -1.499781 0.000438 0.999947 
2.290000 -1.499790 0.000421 0.999949 
2.300000 -1.499798 0.000404 0.999951 
2.310000 -1.499806 0.000388 0.999953 
2.320000 -1.499813 0.000373 0.999955 
2.330000 -1.499821 0.000358 0.999957 
2.340000 -1.499828 0.000344 0.999959 
2.350000 -1.499835 0.000331 0.999960 
2.360000 -1.499841 0.000318 0.999962 
2.370000 -1.499847 0.000305 0.999963 
2.380000 -1.499853 0.000293 0.999965 
2.390000 -1.499859 0.000282 0.999966 
2.400000 -1.499865 0.000271 0.999967 
2.410000 -1.499870 0.000260 0.999969 
2.420000 -1.499875 0.000250 0.999970 
2.430000 -1.499880 0.000240 0.999971 
2.440000 -1.499885 0.000231 0.999972 
2.450000 -1.499889 0.000222 0.999973 
2.460000 -1.499893 0.000213 0.999974 
2.470000 -1.499898 0.000205 0.999975 
2.480000 -1.499902 0.000197 0.999976 
2.490000 -1.499905 0.000189 0.999977 
2.500000 -1.499909 0.000182 0.999978 
2.510000 -1.499913 0.000174 0.999979 
2.520000 -1.499916 0.000168 0.999980 
2.530000 -1.499919 0.000161 0.999981 
2.540000 -1.499923 0.000155 0.999981 
2.550000 -1.499926 0.000149 0.999982 
2.560000 -1.499929 0.000143 0.999983 
2.570000 -1.499931 0.000137 0.999984 
2.580000 -1.499934 0.000132 0.999984 
2.590000 -1.499937 0.000127 0.999985 
2.600000 -1.499939 0.000122 0.999985 
2.610000 -1.499942 0.000117 0.999986 
2.620000 -1.499944 0.000112 0.999987 
2.630000 -1.499946 0.000108 0.999987 
2.640000 -1.499948 0.000104 0.999988 
2.650000 -1.499950 0.000100 0.999988 
2.660000 -1.499952 0.000096 0.999989 
2.670000 -1.499954 0.000092 0.999989 
2.680000 -1.499956 0.000088 0.999989 
2.690000 -1.499958 0.000085 0.999990 
2.700000 -1.499959 0.000082 0.999990 
2.710000 -1.499961 0.000078 0.999991 
2.720000 -1.499962 0.000075 0.999991 
2.730000 -1.499964 0.000072 0.999991 
2.740000 -1.499965 0.000070 0.999992 
2.750000 -1.499967 0.000067 0.999992 
2.760000 -1.499968 0.000064 0.999992 
2.770000 -1.499969 0.000062 0.999993 
2.780000 -1.499970 0.000059 0.999993 
2.790000 -1.499972 0.000057 0.999993 
2.800000 -1.499973 0.000055 0.999993 
2.810000 -1.499974 0.000053 0.999994 
2.820000 -1.499975 0.000050 0.999994 
2.830000 -1.499976 0.000049 0.999994 
2.840000 -1.499977 0.000047 0.999994 
2.850000 -1.499978 0.000045 0.999995 
2.860000 -1.499978 0.000043 0.999995 
2.870000 -1.499979 0.000041 0.999995 
2.880000 -1.499980 0.000040 0.999995 
2.890000 -1.499981 0.000038 0.999995 
2.900000 -1.499982 0.000037 0.999996 
2.910000 -1.499982 0.000035 0.999996 
2.920000 -1.499983 0.000034 0.999996 
2.930000 -1.499984 0.000033 0.999996 
2.940000 -1.499984 0.000031 0.999996 
2.950000 -1.499985 0.000030 0.999996 
2.960000 -1.499986 0.000029 0.999997 
2.970000 -1.499986 0.000028 0.999997 
2.980000 -1.499987 0.000027 0.999997 
2.990000 -1.499987 0.000026 0.999997 
3.000000 -1.499988 0.000025 0.999997 
3.010000 -1.499988 0.000024 0.999997 
3.020000 -1.499989 0.000023 0.999997 
3.030000 -1.499989 0.000022 0.999997 
3.040000 -1.499990 0.000021 0.999997 
3.050000 -1.499990 0.000020 0.999998 
3.060000 -1.499990 0.000019 0.999998 
3.070000 -1.499991 0.000019 0.999998 
3.080000 -1.499991 0.000018 0.999998 
3.090000 -1.499991 0.000017 0.999998 
3.100000 -1.499992 0.000016 0.999998 
3.110000 -1.499992 0.000016 0.999998 
3.120000 -1.499992 0.000015 0.999998 
3.130000 -1.499993 0.000015 0.999998 
3.140000 -1.499993 0.000014 0.999998 
3.150000 -1.499993 0.000013 0.999998 
3.160000 -1.499994 0.000013 0.999998 
3.170000 -1.499994 0.000012 0.999999 
3.180000 -1.499994 0.000012 0.999999 
3.190000 -1.499994 0.000011 0.999999 
3.200000 -1.499994 0.000011 0.999999 
3.210000 -1.499995 0.000011 0.999999 
3.220000 -1.499995 0.000010 0.999999 
3.230000 -1.499995 0.000010 0.999999 
3.240000 -1.499995 0.000009 0.999999 
3.250000 -1.499995 0.000009 0.999999 
3.260000 -1.499996 0.000009 0.999999 
3.270000 -1.499996 0.000008 0.999999 
3.280000 -1.499996 0.000008 0.999999 
3.290000 -1.499996 0.000008 0.999999 
3.300000 -1.499996 0.000007 0.999999 
3.310000 -1.499996 0.000007 0.999999 
3.320000 -1.499997 0.000007 0.999999 
3.330000 -1.499997 0.000007 0.999999 
3.340000 -1.499997 0.000006 0.999999 
3.350000 -1.499997 0.000006 0.999999 
3.360000 -1.499997 0.000006 0.999999 
3.370000 -1.499997 0.000006 0.999999 
3.380000 -1.499997 0.000005 0.999999 
3.390000 -1.499997 0.000005 0.999999 
3.400000 -1.499998 0.000005 0.999999 
3.410000 -1.499998 0.000005 0.999999 
3.420000 -1.499998 0.000005 0.999999 
3.430000 -1.499998 0.000004 0.999999 
3.440000 -1.499998 0.000004 0.999999 
3.450000 -1.499998 0.000004 1.000000 
3.460000 -1.499998 0.000004 1.000000 
3.470000 -1.499998 0.000004 1.000000 
3.480000 -1.499998 0.000004 1.000000 
3.490000 -1.499998 0.000003 1.000000 
3.500000 -1.499998 0.000003 1.000000 
3.510000 -1.499998 0.000003 1.000000 
3.520000 -1.499998 0.000003 1.000000 
3.530000 -1.499999 0.000003 1.000000 
3.540000 -1.499999 0.000003 1.000000 
3.550000 -1.499999 0.000003 1.000000 
3.560000 -1.499999 0.000003 1.000000 
3.570000 -1.499999 0.000003 1.000000 
3.580000 -1.499999 0.000002 1.000000 
3.590000 -1.499999 0.000002 1.000000 
3.600000 -1.499999 0.000002 1.000000 
3.610000 -1.499999 0.000002 1.000000 
3.620000 -1.499999 0.000002 1.000000 
3.630000 -1.499999 0.000002 1.000000 
3.640000 -1.499999 0.000002 1.000000 
3.650000 -1.499999 0.000002 1.000000 
3.660000 -1.499999 0.000002 1.000000 
3.670000 -1.499999 0.000002 1.000000 
3.680000 -1.499999 0.000002 1.000000 
3.690000 -1.499999 0.000002 1.000000 
3.700000 -1.499999 0.000001 1.000000 
3.710000 -1.499999 0.000001 1.000000 
3.720000 -1.499999 0.000001 1.000000 
3.730000 -1.499999 0.000001 1.000000 
3.740000 -1.499999 0.000001 1.000000 
3.750000 -1.499999 0.000001 1.000000 
3.760000 -1.499999 0.000001 1.000000 
3.770000 -1.499999 0.000001 1.000000 
3.780000 -1.499999 0.000001 1.000000 
3.790000 -1.499999 0.000001 1.000000 
3.800000 -1.499999 0.000001 1.000000 
3.810000 -1.500000 0.000001 1.000000 
3.820000 -1.500000 0.000001 1.000000 
3.830000 -1.500000 0.000001 1.000000 
3.840000 -1.500000 0.000001 1.000000 
3.850000 -1.500000 0.000001 1.000000 
3.860000 -1.500000 0.000001 1.000000 
3.870000 -1.500000 0.000001 1.000000 
3.880000 -1.500000 0.000001 1.000000 
3.890000 -1.500000 0.000001 1.000000 
3.900000 -1.500000 0.000001 1.000000 
3.910000 -1.500000 0.000001 1.000000 
3.920000 -1.500000 0.000001 1.000000 
3.930000 -1.500000 0.000001 1.000000 
3.940000 -1.500000 0.000001 1.000000 
3.950000 -1.500000 0.000001 1.000000 
3.960000 -1.500000 0.000001 1.000000 
3.970000 -1.500000 0.000001 1.000000 
3.980000 -1.500000 0.000000 1.000000 
3.990000 -1.500000 0.000000 1.000000 
4.000000 -1.500000 0.000000 1.000000 
FCI ITE gs wfn 
01 0.707339253815 0.000000000000 I 
10 -0.706874232104 0.000000000000 I 
