FCI gs energy -4.664214 
FCI gs wfn 
000111 -0.026418777964 0.000000000000 I 
001011 0.217760494146 0.000000000000 I 
001101 -0.217760494146 0.000000000000 I 
001110 0.026418777964 0.000000000000 I 
010011 -0.217760494146 0.000000000000 I 
010101 0.461939766256 0.000000000000 I 
010110 -0.217760494146 0.000000000000 I 
011001 -0.217760494146 0.000000000000 I 
011010 0.217760494146 0.000000000000 I 
011100 -0.026418777964 0.000000000000 I 
100011 0.026418777964 0.000000000000 I 
100101 -0.217760494146 0.000000000000 I 
100110 0.217760494146 0.000000000000 I 
101001 0.217760494146 0.000000000000 I 
101010 -0.461939766256 0.000000000000 I 
101100 0.217760494146 0.000000000000 I 
110001 -0.026418777964 0.000000000000 I 
110010 0.217760494146 0.000000000000 I 
110100 -0.217760494146 0.000000000000 I 
111000 0.026418777964 0.000000000000 I 
QITE
0.000000 -1.750000 6.750000 0.461940 
0.010000 -1.881287 6.379604 0.475286 
0.020000 -2.005399 6.028754 0.488398 
0.030000 -2.122724 5.697605 0.501270 
0.040000 -2.233653 5.385920 0.513898 
0.050000 -2.338568 5.093162 0.526279 
0.060000 -2.437836 4.818583 0.538412 
0.070000 -2.531811 4.561297 0.550295 
0.080000 -2.620827 4.320334 0.561929 
0.090000 -2.705196 4.094689 0.573314 
0.100000 -2.785215 3.883354 0.584451 
0.110000 -2.860888 3.686179 0.595308 
0.120000 -2.932764 3.501308 0.605924 
0.130000 -3.001078 3.327850 0.616300 
0.140000 -3.066050 3.164976 0.626439 
0.150000 -3.127882 3.011913 0.636344 
0.160000 -3.186760 2.867952 0.646018 
0.170000 -3.242860 2.732441 0.655465 
0.180000 -3.296343 2.604784 0.664688 
0.190000 -3.347360 2.484434 0.673692 
0.200000 -3.396049 2.370894 0.682478 
0.210000 -3.442384 2.264118 0.691025 
0.220000 -3.486657 2.163242 0.699364 
0.230000 -3.528981 2.067884 0.707501 
0.240000 -3.569462 1.977696 0.715438 
0.250000 -3.608199 1.892353 0.723180 
0.260000 -3.645286 1.811557 0.730730 
0.270000 -3.680810 1.735031 0.738094 
0.280000 -3.714853 1.662518 0.745274 
0.290000 -3.747492 1.593777 0.752276 
0.300000 -3.778800 1.528586 0.759102 
0.310000 -3.808746 1.466973 0.765736 
0.320000 -3.837500 1.408483 0.772204 
0.330000 -3.865123 1.352933 0.778509 
0.340000 -3.891670 1.300150 0.784655 
0.350000 -3.917196 1.249972 0.790645 
0.360000 -3.941751 1.202247 0.796483 
0.370000 -3.965381 1.156833 0.802173 
0.380000 -3.988130 1.113593 0.807717 
0.390000 -4.010042 1.072403 0.813120 
0.400000 -4.031155 1.033141 0.818384 
0.410000 -4.051437 0.995831 0.823496 
0.420000 -4.070996 0.960225 0.828476 
0.430000 -4.089865 0.926224 0.833328 
0.440000 -4.108075 0.893735 0.838054 
0.450000 -4.125655 0.862671 0.842658 
0.460000 -4.142632 0.832950 0.847142 
0.470000 -4.159032 0.804497 0.851509 
0.480000 -4.174880 0.777239 0.855762 
0.490000 -4.190198 0.751111 0.859903 
0.500000 -4.205008 0.726049 0.863935 
0.510000 -4.219285 0.702073 0.867848 
0.520000 -4.233096 0.679047 0.871658 
0.530000 -4.246460 0.656918 0.875366 
0.540000 -4.259394 0.635639 0.878976 
0.550000 -4.271915 0.615165 0.882489 
0.560000 -4.284037 0.595456 0.885909 
0.570000 -4.295776 0.576472 0.889236 
0.580000 -4.307145 0.558177 0.892474 
0.590000 -4.318158 0.540538 0.895624 
0.600000 -4.328827 0.523522 0.898688 
0.610000 -4.339129 0.507164 0.901660 
0.620000 -4.349112 0.491370 0.904550 
0.630000 -4.358789 0.476112 0.907362 
0.640000 -4.368168 0.461368 0.910096 
0.650000 -4.377260 0.447114 0.912755 
0.660000 -4.386075 0.433330 0.915341 
0.670000 -4.394621 0.419996 0.917855 
0.680000 -4.402907 0.407093 0.920300 
0.690000 -4.410941 0.394604 0.922676 
0.700000 -4.418732 0.382512 0.924986 
0.710000 -4.426262 0.370838 0.927223 
0.720000 -4.433566 0.359530 0.929398 
0.730000 -4.440648 0.348574 0.931512 
0.740000 -4.447518 0.337958 0.933565 
0.750000 -4.454180 0.327668 0.935561 
0.760000 -4.460641 0.317694 0.937500 
0.770000 -4.466909 0.308024 0.939384 
0.780000 -4.472987 0.298648 0.941214 
0.790000 -4.478882 0.289556 0.942992 
0.800000 -4.484600 0.280739 0.944719 
0.810000 -4.490127 0.272215 0.946390 
0.820000 -4.495488 0.263946 0.948013 
0.830000 -4.500688 0.255926 0.949589 
0.840000 -4.505731 0.248144 0.951120 
0.850000 -4.510622 0.240595 0.952606 
0.860000 -4.515366 0.233271 0.954050 
0.870000 -4.519968 0.226164 0.955451 
0.880000 -4.524430 0.219268 0.956811 
0.890000 -4.528758 0.212578 0.958131 
0.900000 -4.532955 0.206086 0.959413 
0.910000 -4.537014 0.199806 0.960653 
0.920000 -4.540950 0.193712 0.961857 
0.930000 -4.544767 0.187799 0.963026 
0.940000 -4.548469 0.182061 0.964160 
0.950000 -4.552059 0.176493 0.965261 
0.960000 -4.555540 0.171090 0.966329 
0.970000 -4.558916 0.165847 0.967365 
0.980000 -4.562190 0.160759 0.968371 
0.990000 -4.565364 0.155823 0.969346 
1.000000 -4.568442 0.151034 0.970293 
1.010000 -4.571416 0.146402 0.971208 
1.020000 -4.574300 0.141909 0.972096 
1.030000 -4.577096 0.137549 0.972958 
1.040000 -4.579808 0.133319 0.973793 
1.050000 -4.582436 0.129215 0.974604 
1.060000 -4.584985 0.125233 0.975390 
1.070000 -4.587456 0.121371 0.976153 
1.080000 -4.589851 0.117623 0.976892 
1.090000 -4.592174 0.113988 0.977610 
1.100000 -4.594425 0.110462 0.978305 
1.110000 -4.596601 0.107053 0.978978 
1.120000 -4.598710 0.103746 0.979630 
1.130000 -4.600754 0.100539 0.980262 
1.140000 -4.602736 0.097427 0.980875 
1.150000 -4.604657 0.094410 0.981470 
1.160000 -4.606520 0.091483 0.982047 
1.170000 -4.608325 0.088645 0.982606 
1.180000 -4.610075 0.085892 0.983148 
1.190000 -4.611771 0.083222 0.983673 
1.200000 -4.613415 0.080633 0.984183 
1.210000 -4.615001 0.078134 0.984675 
1.220000 -4.616539 0.075710 0.985152 
1.230000 -4.618029 0.073360 0.985614 
1.240000 -4.619474 0.071080 0.986062 
1.250000 -4.620874 0.068870 0.986497 
1.260000 -4.622231 0.066728 0.986918 
1.270000 -4.623546 0.064650 0.987327 
1.280000 -4.624821 0.062636 0.987723 
1.290000 -4.626056 0.060682 0.988106 
1.300000 -4.627254 0.058789 0.988478 
1.310000 -4.628410 0.056959 0.988838 
1.320000 -4.629531 0.055184 0.989186 
1.330000 -4.630618 0.053464 0.989524 
1.340000 -4.631671 0.051796 0.989851 
1.350000 -4.632691 0.050180 0.990169 
1.360000 -4.633680 0.048613 0.990476 
1.370000 -4.634639 0.047093 0.990774 
1.380000 -4.635567 0.045621 0.991063 
1.390000 -4.636467 0.044193 0.991343 
1.400000 -4.637339 0.042810 0.991615 
1.410000 -4.638182 0.041473 0.991877 
1.420000 -4.638999 0.040176 0.992131 
1.430000 -4.639790 0.038920 0.992378 
1.440000 -4.640557 0.037702 0.992617 
1.450000 -4.641300 0.036522 0.992848 
1.460000 -4.642020 0.035378 0.993072 
1.470000 -4.642717 0.034269 0.993290 
1.480000 -4.643394 0.033194 0.993500 
1.490000 -4.644049 0.032153 0.993704 
1.500000 -4.644684 0.031143 0.993902 
1.510000 -4.645296 0.030168 0.994093 
1.520000 -4.645890 0.029224 0.994278 
1.530000 -4.646466 0.028308 0.994458 
1.540000 -4.647024 0.027420 0.994632 
1.550000 -4.647564 0.026560 0.994800 
1.560000 -4.648087 0.025727 0.994963 
1.570000 -4.648595 0.024919 0.995121 
1.580000 -4.649086 0.024137 0.995275 
1.590000 -4.649562 0.023378 0.995423 
1.600000 -4.650024 0.022643 0.995567 
1.610000 -4.650470 0.021933 0.995706 
1.620000 -4.650902 0.021244 0.995841 
1.630000 -4.651321 0.020577 0.995972 
1.640000 -4.651727 0.019930 0.996098 
1.650000 -4.652120 0.019303 0.996221 
1.660000 -4.652501 0.018696 0.996340 
1.670000 -4.652870 0.018108 0.996455 
1.680000 -4.653228 0.017538 0.996567 
1.690000 -4.653574 0.016985 0.996675 
1.700000 -4.653910 0.016450 0.996780 
1.710000 -4.654234 0.015934 0.996881 
1.720000 -4.654547 0.015433 0.996979 
1.730000 -4.654851 0.014948 0.997074 
1.740000 -4.655146 0.014478 0.997166 
1.750000 -4.655431 0.014023 0.997255 
1.760000 -4.655708 0.013582 0.997341 
1.770000 -4.655976 0.013155 0.997425 
1.780000 -4.656235 0.012740 0.997506 
1.790000 -4.656487 0.012339 0.997584 
1.800000 -4.656731 0.011950 0.997661 
1.810000 -4.656965 0.011575 0.997734 
1.820000 -4.657193 0.011212 0.997805 
1.830000 -4.657414 0.010860 0.997874 
1.840000 -4.657627 0.010519 0.997941 
1.850000 -4.657834 0.010189 0.998005 
1.860000 -4.658035 0.009868 0.998068 
1.870000 -4.658229 0.009558 0.998129 
1.880000 -4.658418 0.009258 0.998188 
1.890000 -4.658600 0.008966 0.998245 
1.900000 -4.658777 0.008684 0.998300 
1.910000 -4.658947 0.008412 0.998353 
1.920000 -4.659113 0.008147 0.998405 
1.930000 -4.659273 0.007892 0.998455 
1.940000 -4.659428 0.007644 0.998503 
1.950000 -4.659579 0.007403 0.998551 
1.960000 -4.659725 0.007171 0.998596 
1.970000 -4.659866 0.006945 0.998640 
1.980000 -4.660003 0.006727 0.998683 
1.990000 -4.660135 0.006515 0.998724 
2.000000 -4.660264 0.006310 0.998765 
2.010000 -4.660388 0.006111 0.998803 
2.020000 -4.660508 0.005919 0.998841 
2.030000 -4.660625 0.005733 0.998877 
2.040000 -4.660738 0.005553 0.998913 
2.050000 -4.660847 0.005378 0.998947 
2.060000 -4.660953 0.005209 0.998980 
2.070000 -4.661056 0.005045 0.999012 
2.080000 -4.661155 0.004886 0.999043 
2.090000 -4.661252 0.004732 0.999073 
2.100000 -4.661345 0.004583 0.999103 
2.110000 -4.661435 0.004439 0.999131 
2.120000 -4.661523 0.004299 0.999158 
2.130000 -4.661607 0.004164 0.999185 
2.140000 -4.661689 0.004033 0.999210 
2.150000 -4.661769 0.003906 0.999235 
2.160000 -4.661845 0.003783 0.999259 
2.170000 -4.661920 0.003664 0.999282 
2.180000 -4.661992 0.003549 0.999305 
2.190000 -4.662062 0.003437 0.999327 
2.200000 -4.662130 0.003329 0.999348 
2.210000 -4.662196 0.003224 0.999369 
2.220000 -4.662259 0.003122 0.999388 
2.230000 -4.662321 0.003024 0.999408 
2.240000 -4.662380 0.002929 0.999426 
2.250000 -4.662438 0.002836 0.999444 
2.260000 -4.662494 0.002747 0.999462 
2.270000 -4.662548 0.002660 0.999479 
2.280000 -4.662601 0.002576 0.999495 
2.290000 -4.662652 0.002495 0.999511 
2.300000 -4.662701 0.002416 0.999527 
2.310000 -4.662748 0.002340 0.999541 
2.320000 -4.662794 0.002267 0.999556 
2.330000 -4.662839 0.002196 0.999570 
2.340000 -4.662882 0.002127 0.999583 
2.350000 -4.662924 0.002060 0.999596 
2.360000 -4.662964 0.001995 0.999609 
2.370000 -4.663004 0.001933 0.999621 
2.380000 -4.663042 0.001872 0.999633 
2.390000 -4.663078 0.001813 0.999645 
2.400000 -4.663114 0.001756 0.999656 
2.410000 -4.663148 0.001701 0.999667 
2.420000 -4.663182 0.001648 0.999677 
2.430000 -4.663214 0.001596 0.999687 
2.440000 -4.663246 0.001546 0.999697 
2.450000 -4.663276 0.001498 0.999706 
2.460000 -4.663305 0.001451 0.999716 
2.470000 -4.663334 0.001405 0.999725 
2.480000 -4.663361 0.001361 0.999733 
2.490000 -4.663388 0.001318 0.999742 
2.500000 -4.663414 0.001277 0.999750 
2.510000 -4.663439 0.001237 0.999757 
2.520000 -4.663463 0.001198 0.999765 
2.530000 -4.663487 0.001161 0.999772 
2.540000 -4.663509 0.001124 0.999780 
2.550000 -4.663531 0.001089 0.999786 
2.560000 -4.663553 0.001055 0.999793 
2.570000 -4.663574 0.001022 0.999800 
2.580000 -4.663594 0.000990 0.999806 
2.590000 -4.663613 0.000959 0.999812 
2.600000 -4.663632 0.000929 0.999818 
2.610000 -4.663650 0.000900 0.999823 
2.620000 -4.663668 0.000872 0.999829 
2.630000 -4.663685 0.000845 0.999834 
2.640000 -4.663701 0.000818 0.999840 
2.650000 -4.663717 0.000793 0.999845 
2.660000 -4.663733 0.000768 0.999849 
2.670000 -4.663748 0.000744 0.999854 
2.680000 -4.663762 0.000720 0.999859 
2.690000 -4.663776 0.000698 0.999863 
2.700000 -4.663790 0.000676 0.999867 
2.710000 -4.663803 0.000655 0.999871 
2.720000 -4.663816 0.000635 0.999875 
2.730000 -4.663828 0.000615 0.999879 
2.740000 -4.663840 0.000596 0.999883 
2.750000 -4.663852 0.000577 0.999887 
2.760000 -4.663863 0.000559 0.999890 
2.770000 -4.663874 0.000542 0.999894 
2.780000 -4.663885 0.000525 0.999897 
2.790000 -4.663895 0.000508 0.999900 
2.800000 -4.663905 0.000493 0.999903 
2.810000 -4.663914 0.000477 0.999906 
2.820000 -4.663924 0.000463 0.999909 
2.830000 -4.663932 0.000449 0.999912 
2.840000 -4.663941 0.000435 0.999915 
2.850000 -4.663949 0.000421 0.999917 
2.860000 -4.663958 0.000408 0.999920 
2.870000 -4.663965 0.000396 0.999922 
2.880000 -4.663973 0.000384 0.999925 
2.890000 -4.663980 0.000372 0.999927 
2.900000 -4.663987 0.000361 0.999929 
2.910000 -4.663994 0.000350 0.999931 
2.920000 -4.664001 0.000339 0.999933 
2.930000 -4.664008 0.000329 0.999935 
2.940000 -4.664014 0.000319 0.999937 
2.950000 -4.664020 0.000309 0.999939 
2.960000 -4.664026 0.000299 0.999941 
2.970000 -4.664032 0.000290 0.999943 
2.980000 -4.664037 0.000281 0.999945 
2.990000 -4.664042 0.000273 0.999946 
3.000000 -4.664048 0.000265 0.999948 
3.010000 -4.664053 0.000256 0.999950 
3.020000 -4.664058 0.000249 0.999951 
3.030000 -4.664062 0.000241 0.999953 
3.040000 -4.664067 0.000233 0.999954 
3.050000 -4.664072 0.000226 0.999955 
3.060000 -4.664076 0.000219 0.999957 
3.070000 -4.664080 0.000213 0.999958 
3.080000 -4.664084 0.000206 0.999959 
3.090000 -4.664088 0.000200 0.999961 
3.100000 -4.664092 0.000194 0.999962 
3.110000 -4.664096 0.000188 0.999963 
3.120000 -4.664099 0.000182 0.999964 
3.130000 -4.664103 0.000176 0.999965 
3.140000 -4.664106 0.000171 0.999966 
3.150000 -4.664110 0.000166 0.999967 
3.160000 -4.664113 0.000160 0.999968 
3.170000 -4.664116 0.000156 0.999969 
3.180000 -4.664119 0.000151 0.999970 
3.190000 -4.664122 0.000146 0.999971 
3.200000 -4.664124 0.000142 0.999972 
3.210000 -4.664127 0.000137 0.999973 
3.220000 -4.664130 0.000133 0.999974 
3.230000 -4.664132 0.000129 0.999974 
3.240000 -4.664135 0.000125 0.999975 
3.250000 -4.664137 0.000122 0.999976 
3.260000 -4.664139 0.000118 0.999977 
3.270000 -4.664142 0.000114 0.999977 
3.280000 -4.664144 0.000111 0.999978 
3.290000 -4.664146 0.000108 0.999979 
3.300000 -4.664148 0.000105 0.999979 
3.310000 -4.664150 0.000101 0.999980 
3.320000 -4.664152 0.000099 0.999980 
3.330000 -4.664153 0.000096 0.999981 
3.340000 -4.664155 0.000093 0.999982 
3.350000 -4.664157 0.000090 0.999982 
3.360000 -4.664158 0.000088 0.999983 
3.370000 -4.664160 0.000085 0.999983 
3.380000 -4.664161 0.000083 0.999984 
3.390000 -4.664163 0.000081 0.999984 
3.400000 -4.664164 0.000078 0.999984 
3.410000 -4.664166 0.000076 0.999985 
3.420000 -4.664167 0.000074 0.999985 
3.430000 -4.664168 0.000072 0.999986 
3.440000 -4.664170 0.000070 0.999986 
3.450000 -4.664171 0.000068 0.999986 
3.460000 -4.664172 0.000066 0.999987 
3.470000 -4.664173 0.000064 0.999987 
3.480000 -4.664174 0.000062 0.999988 
3.490000 -4.664175 0.000061 0.999988 
3.500000 -4.664176 0.000059 0.999988 
3.510000 -4.664177 0.000057 0.999989 
3.520000 -4.664178 0.000056 0.999989 
3.530000 -4.664179 0.000054 0.999989 
3.540000 -4.664180 0.000052 0.999989 
3.550000 -4.664181 0.000051 0.999990 
3.560000 -4.664182 0.000050 0.999990 
3.570000 -4.664183 0.000048 0.999990 
3.580000 -4.664184 0.000047 0.999991 
3.590000 -4.664185 0.000046 0.999991 
3.600000 -4.664185 0.000044 0.999991 
3.610000 -4.664186 0.000043 0.999991 
3.620000 -4.664187 0.000042 0.999991 
3.630000 -4.664188 0.000041 0.999992 
3.640000 -4.664188 0.000040 0.999992 
3.650000 -4.664189 0.000039 0.999992 
3.660000 -4.664190 0.000038 0.999992 
3.670000 -4.664190 0.000037 0.999993 
3.680000 -4.664191 0.000036 0.999993 
3.690000 -4.664191 0.000035 0.999993 
3.700000 -4.664192 0.000034 0.999993 
3.710000 -4.664192 0.000033 0.999993 
3.720000 -4.664193 0.000032 0.999993 
3.730000 -4.664193 0.000031 0.999994 
3.740000 -4.664194 0.000031 0.999994 
3.750000 -4.664194 0.000030 0.999994 
3.760000 -4.664195 0.000029 0.999994 
3.770000 -4.664195 0.000029 0.999994 
3.780000 -4.664196 0.000028 0.999994 
3.790000 -4.664196 0.000027 0.999994 
3.800000 -4.664197 0.000027 0.999994 
3.810000 -4.664197 0.000026 0.999995 
3.820000 -4.664197 0.000025 0.999995 
3.830000 -4.664198 0.000025 0.999995 
3.840000 -4.664198 0.000024 0.999995 
3.850000 -4.664198 0.000024 0.999995 
3.860000 -4.664199 0.000023 0.999995 
3.870000 -4.664199 0.000023 0.999995 
3.880000 -4.664199 0.000022 0.999995 
3.890000 -4.664200 0.000022 0.999995 
3.900000 -4.664200 0.000021 0.999996 
3.910000 -4.664200 0.000021 0.999996 
3.920000 -4.664201 0.000020 0.999996 
3.930000 -4.664201 0.000020 0.999996 
3.940000 -4.664201 0.000019 0.999996 
3.950000 -4.664201 0.000019 0.999996 
3.960000 -4.664202 0.000019 0.999996 
3.970000 -4.664202 0.000018 0.999996 
3.980000 -4.664202 0.000018 0.999996 
3.990000 -4.664202 0.000017 0.999996 
4.000000 -4.664203 0.000017 0.999996 
QITE gs wfn 
000111 -0.026158364901 0.000007345333 I 
001011 0.217433552036 -0.000009384966 I 
001101 -0.218579154011 -0.000020443353 I 
001110 0.027177322014 -0.000002504647 I 
010011 -0.217568317072 -0.000012422412 I 
010101 0.463052075819 -0.000004216122 I 
010110 -0.218596094133 0.000032445516 I 
011001 -0.218068965756 0.000031803129 I 
011010 0.216945382795 -0.000006516006 I 
011100 -0.025691893980 -0.000028611055 I 
100011 0.026164590262 -0.000004586985 I 
100101 -0.217555426594 0.000007883626 I 
100110 0.217436513940 -0.000015650755 I 
101001 0.217989580981 -0.000010967656 I 
101010 -0.460811018297 0.000015840914 I 
101100 0.216962943349 0.000042405115 I 
110001 -0.026695821671 0.000002797063 I 
110010 0.217958727187 0.000015748427 I 
110100 -0.218048658119 -0.000031597783 I 
111000 0.026633988335 -0.000018294582 I 
