FCI gs energy -3.000000 
FCI gs wfn 
01 0.707106781187 0.000000000000 I 
10 -0.707106781187 -0.000000000000 I 
FCI ITE
0.000000 -1.000000 4.000000 0.721103 
0.010000 -1.079957 3.993607 0.734789 
0.020000 -1.159660 3.974509 0.748140 
0.030000 -1.238855 3.942948 0.761134 
0.040000 -1.317297 3.899323 0.773749 
0.050000 -1.394751 3.844172 0.785969 
0.060000 -1.470991 3.778167 0.797780 
0.070000 -1.545810 3.702091 0.809168 
0.080000 -1.619014 3.616822 0.820126 
0.090000 -1.690428 3.523309 0.830647 
0.100000 -1.759898 3.422555 0.840727 
0.110000 -1.827289 3.315593 0.850366 
0.120000 -1.892487 3.203467 0.859564 
0.130000 -1.955400 3.087211 0.868325 
0.140000 -2.015955 2.967836 0.876655 
0.150000 -2.074099 2.846311 0.884562 
0.160000 -2.129799 2.723554 0.892054 
0.170000 -2.183039 2.600419 0.899141 
0.180000 -2.233819 2.477692 0.905836 
0.190000 -2.282154 2.356081 0.912150 
0.200000 -2.328074 2.236221 0.918098 
0.210000 -2.371618 2.118664 0.923693 
0.220000 -2.412839 2.003887 0.928950 
0.230000 -2.451795 1.892292 0.933884 
0.240000 -2.488554 1.784208 0.938508 
0.250000 -2.523188 1.679897 0.942838 
0.260000 -2.555776 1.579561 0.946889 
0.270000 -2.586398 1.483341 0.950676 
0.280000 -2.615138 1.391330 0.954212 
0.290000 -2.642080 1.303574 0.957511 
0.300000 -2.667309 1.220080 0.960587 
0.310000 -2.690911 1.140819 0.963453 
0.320000 -2.712970 1.065734 0.966122 
0.330000 -2.733568 0.994742 0.968605 
0.340000 -2.752786 0.927741 0.970915 
0.350000 -2.770703 0.864610 0.973062 
0.360000 -2.787395 0.805217 0.975056 
0.370000 -2.802936 0.749422 0.976908 
0.380000 -2.817395 0.697074 0.978627 
0.390000 -2.830841 0.648022 0.980222 
0.400000 -2.843337 0.602108 0.981701 
0.410000 -2.854945 0.559179 0.983072 
0.420000 -2.865723 0.519077 0.984343 
0.430000 -2.875726 0.481652 0.985521 
0.440000 -2.885006 0.446752 0.986612 
0.450000 -2.893612 0.414233 0.987622 
0.460000 -2.901590 0.383954 0.988558 
0.470000 -2.908984 0.355779 0.989423 
0.480000 -2.915835 0.329578 0.990225 
0.490000 -2.922180 0.305225 0.990966 
0.500000 -2.928055 0.282603 0.991652 
0.510000 -2.933495 0.261599 0.992286 
0.520000 -2.938529 0.242105 0.992873 
0.530000 -2.943188 0.224020 0.993416 
0.540000 -2.947499 0.207249 0.993917 
0.550000 -2.951486 0.191701 0.994381 
0.560000 -2.955174 0.177293 0.994810 
0.570000 -2.958585 0.163945 0.995206 
0.580000 -2.961739 0.151581 0.995572 
0.590000 -2.964654 0.140133 0.995910 
0.600000 -2.967350 0.129535 0.996223 
0.610000 -2.969841 0.119726 0.996512 
0.620000 -2.972144 0.110649 0.996779 
0.630000 -2.974272 0.102252 0.997025 
0.640000 -2.976238 0.094484 0.997253 
0.650000 -2.978055 0.087299 0.997463 
0.660000 -2.979733 0.080655 0.997658 
0.670000 -2.981284 0.074512 0.997837 
0.680000 -2.982717 0.068833 0.998003 
0.690000 -2.984041 0.063583 0.998156 
0.700000 -2.985263 0.058731 0.998298 
0.710000 -2.986392 0.054246 0.998428 
0.720000 -2.987435 0.050102 0.998549 
0.730000 -2.988398 0.046272 0.998660 
0.740000 -2.989288 0.042733 0.998763 
0.750000 -2.990110 0.039464 0.998858 
0.760000 -2.990868 0.036444 0.998946 
0.770000 -2.991569 0.033654 0.999026 
0.780000 -2.992216 0.031076 0.999101 
0.790000 -2.992813 0.028696 0.999170 
0.800000 -2.993365 0.026497 0.999234 
0.810000 -2.993874 0.024466 0.999293 
0.820000 -2.994344 0.022590 0.999347 
0.830000 -2.994779 0.020858 0.999397 
0.840000 -2.995180 0.019258 0.999444 
0.850000 -2.995550 0.017781 0.999486 
0.860000 -2.995892 0.016417 0.999526 
0.870000 -2.996207 0.015157 0.999562 
0.880000 -2.996499 0.013993 0.999596 
0.890000 -2.996768 0.012919 0.999627 
0.900000 -2.997016 0.011928 0.999656 
0.910000 -2.997245 0.011012 0.999682 
0.920000 -2.997457 0.010166 0.999706 
0.930000 -2.997652 0.009386 0.999729 
0.940000 -2.997833 0.008665 0.999750 
0.950000 -2.997999 0.007999 0.999769 
0.960000 -2.998153 0.007385 0.999787 
0.970000 -2.998295 0.006817 0.999803 
0.980000 -2.998426 0.006294 0.999818 
0.990000 -2.998547 0.005810 0.999832 
1.000000 -2.998659 0.005364 0.999845 
1.010000 -2.998762 0.004952 0.999857 
1.020000 -2.998857 0.004571 0.999868 
1.030000 -2.998945 0.004220 0.999878 
1.040000 -2.999026 0.003896 0.999888 
1.050000 -2.999101 0.003596 0.999896 
1.060000 -2.999170 0.003320 0.999904 
1.070000 -2.999234 0.003065 0.999912 
1.080000 -2.999293 0.002829 0.999918 
1.090000 -2.999347 0.002612 0.999925 
1.100000 -2.999397 0.002411 0.999930 
1.110000 -2.999444 0.002226 0.999936 
1.120000 -2.999486 0.002055 0.999941 
1.130000 -2.999526 0.001897 0.999945 
1.140000 -2.999562 0.001751 0.999949 
1.150000 -2.999596 0.001616 0.999953 
1.160000 -2.999627 0.001492 0.999957 
1.170000 -2.999656 0.001377 0.999960 
1.180000 -2.999682 0.001271 0.999963 
1.190000 -2.999707 0.001174 0.999966 
1.200000 -2.999729 0.001084 0.999969 
1.210000 -2.999750 0.001000 0.999971 
1.220000 -2.999769 0.000923 0.999973 
1.230000 -2.999787 0.000852 0.999975 
1.240000 -2.999803 0.000787 0.999977 
1.250000 -2.999818 0.000726 0.999979 
1.260000 -2.999832 0.000670 0.999981 
1.270000 -2.999845 0.000619 0.999982 
1.280000 -2.999857 0.000571 0.999984 
1.290000 -2.999868 0.000527 0.999985 
1.300000 -2.999878 0.000487 0.999986 
1.310000 -2.999888 0.000449 0.999987 
1.320000 -2.999896 0.000415 0.999988 
1.330000 -2.999904 0.000383 0.999989 
1.340000 -2.999912 0.000354 0.999990 
1.350000 -2.999918 0.000326 0.999991 
1.360000 -2.999925 0.000301 0.999991 
1.370000 -2.999930 0.000278 0.999992 
1.380000 -2.999936 0.000257 0.999993 
1.390000 -2.999941 0.000237 0.999993 
1.400000 -2.999945 0.000219 0.999994 
1.410000 -2.999950 0.000202 0.999994 
1.420000 -2.999953 0.000186 0.999995 
1.430000 -2.999957 0.000172 0.999995 
1.440000 -2.999960 0.000159 0.999995 
1.450000 -2.999963 0.000147 0.999996 
1.460000 -2.999966 0.000135 0.999996 
1.470000 -2.999969 0.000125 0.999996 
1.480000 -2.999971 0.000115 0.999997 
1.490000 -2.999973 0.000106 0.999997 
1.500000 -2.999975 0.000098 0.999997 
1.510000 -2.999977 0.000091 0.999997 
1.520000 -2.999979 0.000084 0.999998 
1.530000 -2.999981 0.000077 0.999998 
1.540000 -2.999982 0.000071 0.999998 
1.550000 -2.999984 0.000066 0.999998 
1.560000 -2.999985 0.000061 0.999998 
1.570000 -2.999986 0.000056 0.999998 
1.580000 -2.999987 0.000052 0.999999 
1.590000 -2.999988 0.000048 0.999999 
1.600000 -2.999989 0.000044 0.999999 
1.610000 -2.999990 0.000041 0.999999 
1.620000 -2.999991 0.000038 0.999999 
1.630000 -2.999991 0.000035 0.999999 
1.640000 -2.999992 0.000032 0.999999 
1.650000 -2.999993 0.000030 0.999999 
1.660000 -2.999993 0.000027 0.999999 
1.670000 -2.999994 0.000025 0.999999 
1.680000 -2.999994 0.000023 0.999999 
1.690000 -2.999995 0.000022 0.999999 
1.700000 -2.999995 0.000020 0.999999 
1.710000 -2.999995 0.000018 0.999999 
1.720000 -2.999996 0.000017 1.000000 
1.730000 -2.999996 0.000016 1.000000 
1.740000 -2.999996 0.000014 1.000000 
1.750000 -2.999997 0.000013 1.000000 
1.760000 -2.999997 0.000012 1.000000 
1.770000 -2.999997 0.000011 1.000000 
1.780000 -2.999997 0.000010 1.000000 
1.790000 -2.999998 0.000010 1.000000 
1.800000 -2.999998 0.000009 1.000000 
1.810000 -2.999998 0.000008 1.000000 
1.820000 -2.999998 0.000008 1.000000 
1.830000 -2.999998 0.000007 1.000000 
1.840000 -2.999998 0.000006 1.000000 
1.850000 -2.999999 0.000006 1.000000 
1.860000 -2.999999 0.000006 1.000000 
1.870000 -2.999999 0.000005 1.000000 
1.880000 -2.999999 0.000005 1.000000 
1.890000 -2.999999 0.000004 1.000000 
1.900000 -2.999999 0.000004 1.000000 
1.910000 -2.999999 0.000004 1.000000 
1.920000 -2.999999 0.000003 1.000000 
1.930000 -2.999999 0.000003 1.000000 
1.940000 -2.999999 0.000003 1.000000 
1.950000 -2.999999 0.000003 1.000000 
1.960000 -2.999999 0.000002 1.000000 
1.970000 -2.999999 0.000002 1.000000 
1.980000 -2.999999 0.000002 1.000000 
1.990000 -3.000000 0.000002 1.000000 
2.000000 -3.000000 0.000002 1.000000 
2.010000 -3.000000 0.000002 1.000000 
2.020000 -3.000000 0.000002 1.000000 
2.030000 -3.000000 0.000001 1.000000 
2.040000 -3.000000 0.000001 1.000000 
2.050000 -3.000000 0.000001 1.000000 
2.060000 -3.000000 0.000001 1.000000 
2.070000 -3.000000 0.000001 1.000000 
2.080000 -3.000000 0.000001 1.000000 
2.090000 -3.000000 0.000001 1.000000 
2.100000 -3.000000 0.000001 1.000000 
2.110000 -3.000000 0.000001 1.000000 
2.120000 -3.000000 0.000001 1.000000 
2.130000 -3.000000 0.000001 1.000000 
2.140000 -3.000000 0.000001 1.000000 
2.150000 -3.000000 0.000001 1.000000 
2.160000 -3.000000 0.000001 1.000000 
2.170000 -3.000000 0.000000 1.000000 
2.180000 -3.000000 0.000000 1.000000 
2.190000 -3.000000 0.000000 1.000000 
2.200000 -3.000000 0.000000 1.000000 
2.210000 -3.000000 0.000000 1.000000 
2.220000 -3.000000 0.000000 1.000000 
2.230000 -3.000000 0.000000 1.000000 
2.240000 -3.000000 0.000000 1.000000 
2.250000 -3.000000 0.000000 1.000000 
2.260000 -3.000000 0.000000 1.000000 
2.270000 -3.000000 0.000000 1.000000 
2.280000 -3.000000 0.000000 1.000000 
2.290000 -3.000000 0.000000 1.000000 
2.300000 -3.000000 0.000000 1.000000 
2.310000 -3.000000 0.000000 1.000000 
2.320000 -3.000000 0.000000 1.000000 
2.330000 -3.000000 0.000000 1.000000 
2.340000 -3.000000 0.000000 1.000000 
2.350000 -3.000000 0.000000 1.000000 
2.360000 -3.000000 0.000000 1.000000 
2.370000 -3.000000 0.000000 1.000000 
2.380000 -3.000000 0.000000 1.000000 
2.390000 -3.000000 0.000000 1.000000 
2.400000 -3.000000 0.000000 1.000000 
2.410000 -3.000000 0.000000 1.000000 
2.420000 -3.000000 0.000000 1.000000 
2.430000 -3.000000 0.000000 1.000000 
2.440000 -3.000000 0.000000 1.000000 
2.450000 -3.000000 0.000000 1.000000 
2.460000 -3.000000 0.000000 1.000000 
2.470000 -3.000000 0.000000 1.000000 
2.480000 -3.000000 0.000000 1.000000 
2.490000 -3.000000 0.000000 1.000000 
2.500000 -3.000000 0.000000 1.000000 
2.510000 -3.000000 0.000000 1.000000 
2.520000 -3.000000 0.000000 1.000000 
2.530000 -3.000000 0.000000 1.000000 
2.540000 -3.000000 0.000000 1.000000 
2.550000 -3.000000 0.000000 1.000000 
2.560000 -3.000000 0.000000 1.000000 
2.570000 -3.000000 0.000000 1.000000 
2.580000 -3.000000 0.000000 1.000000 
2.590000 -3.000000 0.000000 1.000000 
2.600000 -3.000000 0.000000 1.000000 
2.610000 -3.000000 0.000000 1.000000 
2.620000 -3.000000 0.000000 1.000000 
2.630000 -3.000000 0.000000 1.000000 
2.640000 -3.000000 0.000000 1.000000 
2.650000 -3.000000 0.000000 1.000000 
2.660000 -3.000000 0.000000 1.000000 
2.670000 -3.000000 0.000000 1.000000 
2.680000 -3.000000 0.000000 1.000000 
2.690000 -3.000000 0.000000 1.000000 
2.700000 -3.000000 0.000000 1.000000 
2.710000 -3.000000 0.000000 1.000000 
2.720000 -3.000000 0.000000 1.000000 
2.730000 -3.000000 0.000000 1.000000 
2.740000 -3.000000 0.000000 1.000000 
2.750000 -3.000000 0.000000 1.000000 
2.760000 -3.000000 0.000000 1.000000 
2.770000 -3.000000 0.000000 1.000000 
2.780000 -3.000000 0.000000 1.000000 
2.790000 -3.000000 0.000000 1.000000 
2.800000 -3.000000 0.000000 1.000000 
2.810000 -3.000000 0.000000 1.000000 
2.820000 -3.000000 0.000000 1.000000 
2.830000 -3.000000 0.000000 1.000000 
2.840000 -3.000000 0.000000 1.000000 
2.850000 -3.000000 0.000000 1.000000 
2.860000 -3.000000 0.000000 1.000000 
2.870000 -3.000000 0.000000 1.000000 
2.880000 -3.000000 0.000000 1.000000 
2.890000 -3.000000 0.000000 1.000000 
2.900000 -3.000000 0.000000 1.000000 
2.910000 -3.000000 0.000000 1.000000 
2.920000 -3.000000 0.000000 1.000000 
2.930000 -3.000000 0.000000 1.000000 
2.940000 -3.000000 0.000000 1.000000 
2.950000 -3.000000 0.000000 1.000000 
2.960000 -3.000000 0.000000 1.000000 
2.970000 -3.000000 0.000000 1.000000 
2.980000 -3.000000 0.000000 1.000000 
2.990000 -3.000000 0.000000 1.000000 
3.000000 -3.000000 0.000000 1.000000 
3.010000 -3.000000 0.000000 1.000000 
3.020000 -3.000000 0.000000 1.000000 
3.030000 -3.000000 0.000000 1.000000 
3.040000 -3.000000 0.000000 1.000000 
3.050000 -3.000000 0.000000 1.000000 
3.060000 -3.000000 0.000000 1.000000 
3.070000 -3.000000 0.000000 1.000000 
3.080000 -3.000000 0.000000 1.000000 
3.090000 -3.000000 0.000000 1.000000 
3.100000 -3.000000 0.000000 1.000000 
3.110000 -3.000000 0.000000 1.000000 
3.120000 -3.000000 0.000000 1.000000 
3.130000 -3.000000 0.000000 1.000000 
3.140000 -3.000000 0.000000 1.000000 
3.150000 -3.000000 0.000000 1.000000 
3.160000 -3.000000 0.000000 1.000000 
3.170000 -3.000000 0.000000 1.000000 
3.180000 -3.000000 0.000000 1.000000 
3.190000 -3.000000 0.000000 1.000000 
3.200000 -3.000000 0.000000 1.000000 
3.210000 -3.000000 0.000000 1.000000 
3.220000 -3.000000 0.000000 1.000000 
3.230000 -3.000000 0.000000 1.000000 
3.240000 -3.000000 0.000000 1.000000 
3.250000 -3.000000 0.000000 1.000000 
3.260000 -3.000000 0.000000 1.000000 
3.270000 -3.000000 0.000000 1.000000 
3.280000 -3.000000 0.000000 1.000000 
3.290000 -3.000000 0.000000 1.000000 
3.300000 -3.000000 0.000000 1.000000 
3.310000 -3.000000 0.000000 1.000000 
3.320000 -3.000000 0.000000 1.000000 
3.330000 -3.000000 0.000000 1.000000 
3.340000 -3.000000 0.000000 1.000000 
3.350000 -3.000000 0.000000 1.000000 
3.360000 -3.000000 0.000000 1.000000 
3.370000 -3.000000 0.000000 1.000000 
3.380000 -3.000000 0.000000 1.000000 
3.390000 -3.000000 0.000000 1.000000 
3.400000 -3.000000 0.000000 1.000000 
3.410000 -3.000000 0.000000 1.000000 
3.420000 -3.000000 0.000000 1.000000 
3.430000 -3.000000 0.000000 1.000000 
3.440000 -3.000000 0.000000 1.000000 
3.450000 -3.000000 0.000000 1.000000 
3.460000 -3.000000 0.000000 1.000000 
3.470000 -3.000000 0.000000 1.000000 
3.480000 -3.000000 0.000000 1.000000 
3.490000 -3.000000 0.000000 1.000000 
3.500000 -3.000000 0.000000 1.000000 
3.510000 -3.000000 0.000000 1.000000 
3.520000 -3.000000 0.000000 1.000000 
3.530000 -3.000000 0.000000 1.000000 
3.540000 -3.000000 0.000000 1.000000 
3.550000 -3.000000 0.000000 1.000000 
3.560000 -3.000000 0.000000 1.000000 
3.570000 -3.000000 0.000000 1.000000 
3.580000 -3.000000 0.000000 1.000000 
3.590000 -3.000000 0.000000 1.000000 
3.600000 -3.000000 0.000000 1.000000 
3.610000 -3.000000 0.000000 1.000000 
3.620000 -3.000000 0.000000 1.000000 
3.630000 -3.000000 0.000000 1.000000 
3.640000 -3.000000 0.000000 1.000000 
3.650000 -3.000000 0.000000 1.000000 
3.660000 -3.000000 0.000000 1.000000 
3.670000 -3.000000 0.000000 1.000000 
3.680000 -3.000000 0.000000 1.000000 
3.690000 -3.000000 0.000000 1.000000 
3.700000 -3.000000 0.000000 1.000000 
3.710000 -3.000000 0.000000 1.000000 
3.720000 -3.000000 0.000000 1.000000 
3.730000 -3.000000 0.000000 1.000000 
3.740000 -3.000000 0.000000 1.000000 
3.750000 -3.000000 0.000000 1.000000 
3.760000 -3.000000 0.000000 1.000000 
3.770000 -3.000000 0.000000 1.000000 
3.780000 -3.000000 0.000000 1.000000 
3.790000 -3.000000 0.000000 1.000000 
3.800000 -3.000000 0.000000 1.000000 
3.810000 -3.000000 0.000000 1.000000 
3.820000 -3.000000 0.000000 1.000000 
3.830000 -3.000000 0.000000 1.000000 
3.840000 -3.000000 0.000000 1.000000 
3.850000 -3.000000 0.000000 1.000000 
3.860000 -3.000000 0.000000 1.000000 
3.870000 -3.000000 0.000000 1.000000 
3.880000 -3.000000 0.000000 1.000000 
3.890000 -3.000000 0.000000 1.000000 
3.900000 -3.000000 0.000000 1.000000 
3.910000 -3.000000 0.000000 1.000000 
3.920000 -3.000000 0.000000 1.000000 
3.930000 -3.000000 0.000000 1.000000 
3.940000 -3.000000 0.000000 1.000000 
3.950000 -3.000000 0.000000 1.000000 
3.960000 -3.000000 0.000000 1.000000 
3.970000 -3.000000 0.000000 1.000000 
3.980000 -3.000000 0.000000 1.000000 
3.990000 -3.000000 0.000000 1.000000 
4.000000 -3.000000 0.000000 1.000000 
FCI ITE gs wfn 
01 0.707106857641 0.000000000000 I 
10 -0.707106704732 0.000000000000 I 
