FCI gs energy -3.333333 
FCI gs wfn 
0011 -0.288675134595 0.000000000000 I 
0101 0.577350269190 0.000000000000 I 
0110 -0.288675134595 0.000000000000 I 
1001 -0.288675134595 0.000000000000 I 
1010 0.577350269190 0.000000000000 I 
1100 -0.288675134595 0.000000000000 I 
QITE
0.000000 -1.333333 4.000000 0.577350 
0.010000 -1.411723 3.840223 0.588779 
0.020000 -1.486938 3.681616 0.599974 
0.030000 -1.559014 3.525239 0.610935 
0.040000 -1.628002 3.371998 0.621658 
0.050000 -1.693974 3.222657 0.632144 
0.060000 -1.757012 3.077836 0.642395 
0.070000 -1.817212 2.938025 0.652411 
0.080000 -1.874678 2.803591 0.662195 
0.090000 -1.929518 2.674791 0.671749 
0.100000 -1.981847 2.551781 0.681078 
0.110000 -2.031717 2.434821 0.690175 
0.120000 -2.079314 2.323705 0.699054 
0.130000 -2.124754 2.218369 0.707719 
0.140000 -2.168151 2.118692 0.716175 
0.150000 -2.209616 2.024514 0.724426 
0.160000 -2.249257 1.935642 0.732476 
0.170000 -2.287177 1.851858 0.740329 
0.180000 -2.323475 1.772926 0.747990 
0.190000 -2.358246 1.698597 0.755463 
0.200000 -2.391578 1.628619 0.762752 
0.210000 -2.423482 1.562892 0.769844 
0.220000 -2.454116 1.500993 0.776760 
0.230000 -2.483552 1.442673 0.783505 
0.240000 -2.511861 1.387688 0.790081 
0.250000 -2.539106 1.335806 0.796492 
0.260000 -2.565346 1.286805 0.802741 
0.270000 -2.590637 1.240472 0.808832 
0.280000 -2.615030 1.196608 0.814767 
0.290000 -2.638572 1.155025 0.820550 
0.300000 -2.661308 1.115548 0.826184 
0.310000 -2.683236 1.078086 0.831662 
0.320000 -2.704437 1.042411 0.836996 
0.330000 -2.724945 1.008383 0.842190 
0.340000 -2.744791 0.975874 0.847246 
0.350000 -2.764003 0.944767 0.852167 
0.360000 -2.782610 0.914955 0.856955 
0.370000 -2.800635 0.886340 0.861613 
0.380000 -2.818102 0.858834 0.866143 
0.390000 -2.835031 0.832355 0.870548 
0.400000 -2.851443 0.806831 0.874830 
0.410000 -2.867341 0.782226 0.878988 
0.420000 -2.882756 0.758448 0.883028 
0.430000 -2.897707 0.735447 0.886952 
0.440000 -2.912207 0.713173 0.890763 
0.450000 -2.926270 0.691584 0.894464 
0.460000 -2.939910 0.670643 0.898055 
0.470000 -2.953139 0.650314 0.901541 
0.480000 -2.965970 0.630568 0.904923 
0.490000 -2.978412 0.611378 0.908202 
0.500000 -2.990478 0.592719 0.911383 
0.510000 -3.002148 0.574617 0.914459 
0.520000 -3.013463 0.557002 0.917440 
0.530000 -3.024432 0.539858 0.920329 
0.540000 -3.035065 0.523168 0.923128 
0.550000 -3.045370 0.506917 0.925839 
0.560000 -3.055355 0.491095 0.928464 
0.570000 -3.065030 0.475687 0.931005 
0.580000 -3.074402 0.460684 0.933465 
0.590000 -3.083480 0.446077 0.935845 
0.600000 -3.092270 0.431855 0.938148 
0.610000 -3.100773 0.418023 0.940374 
0.620000 -3.109005 0.404560 0.942526 
0.630000 -3.116972 0.391458 0.944607 
0.640000 -3.124682 0.378710 0.946618 
0.650000 -3.132141 0.366308 0.948563 
0.660000 -3.139357 0.354247 0.950441 
0.670000 -3.146335 0.342519 0.952256 
0.680000 -3.153083 0.331118 0.954010 
0.690000 -3.159608 0.320037 0.955703 
0.700000 -3.165914 0.309271 0.957338 
0.710000 -3.171993 0.298841 0.958912 
0.720000 -3.177866 0.288712 0.960432 
0.730000 -3.183541 0.278878 0.961898 
0.740000 -3.189023 0.269334 0.963314 
0.750000 -3.194318 0.260074 0.964679 
0.760000 -3.199431 0.251091 0.965997 
0.770000 -3.204368 0.242379 0.967268 
0.780000 -3.209134 0.233933 0.968494 
0.790000 -3.213734 0.225747 0.969676 
0.800000 -3.218174 0.217814 0.970816 
0.810000 -3.222453 0.210140 0.971914 
0.820000 -3.226581 0.202707 0.972972 
0.830000 -3.230563 0.195510 0.973991 
0.840000 -3.234404 0.188543 0.974974 
0.850000 -3.238109 0.181800 0.975921 
0.860000 -3.241681 0.175275 0.976834 
0.870000 -3.245126 0.168963 0.977714 
0.880000 -3.248447 0.162859 0.978561 
0.890000 -3.251648 0.156957 0.979377 
0.900000 -3.254734 0.151251 0.980163 
0.910000 -3.257704 0.145743 0.980919 
0.920000 -3.260567 0.140420 0.981648 
0.930000 -3.263325 0.135277 0.982349 
0.940000 -3.265982 0.130309 0.983024 
0.950000 -3.268543 0.125511 0.983674 
0.960000 -3.271009 0.120878 0.984300 
0.970000 -3.273384 0.116405 0.984903 
0.980000 -3.275672 0.112087 0.985483 
0.990000 -3.277876 0.107920 0.986042 
1.000000 -3.279997 0.103898 0.986579 
1.010000 -3.282035 0.100028 0.987095 
1.020000 -3.283997 0.096295 0.987591 
1.030000 -3.285886 0.092694 0.988069 
1.040000 -3.287704 0.089221 0.988529 
1.050000 -3.289455 0.085871 0.988971 
1.060000 -3.291140 0.082642 0.989397 
1.070000 -3.292762 0.079529 0.989806 
1.080000 -3.294323 0.076528 0.990201 
1.090000 -3.295825 0.073635 0.990580 
1.100000 -3.297270 0.070848 0.990944 
1.110000 -3.298660 0.068164 0.991295 
1.120000 -3.299998 0.065578 0.991632 
1.130000 -3.301284 0.063087 0.991956 
1.140000 -3.302522 0.060687 0.992268 
1.150000 -3.303714 0.058375 0.992568 
1.160000 -3.304860 0.056148 0.992857 
1.170000 -3.305962 0.054004 0.993134 
1.180000 -3.307022 0.051939 0.993401 
1.190000 -3.308042 0.049951 0.993658 
1.200000 -3.309024 0.048036 0.993904 
1.210000 -3.309968 0.046192 0.994142 
1.220000 -3.310876 0.044417 0.994370 
1.230000 -3.311749 0.042708 0.994590 
1.240000 -3.312589 0.041064 0.994801 
1.250000 -3.313397 0.039481 0.995004 
1.260000 -3.314173 0.037957 0.995199 
1.270000 -3.314920 0.036491 0.995386 
1.280000 -3.315638 0.035081 0.995567 
1.290000 -3.316329 0.033723 0.995740 
1.300000 -3.316993 0.032417 0.995907 
1.310000 -3.317630 0.031163 0.996066 
1.320000 -3.318242 0.029957 0.996220 
1.330000 -3.318831 0.028797 0.996368 
1.340000 -3.319397 0.027681 0.996510 
1.350000 -3.319941 0.026607 0.996646 
1.360000 -3.320464 0.025574 0.996778 
1.370000 -3.320967 0.024581 0.996904 
1.380000 -3.321451 0.023625 0.997025 
1.390000 -3.321916 0.022706 0.997142 
1.400000 -3.322363 0.021822 0.997254 
1.410000 -3.322790 0.020977 0.997361 
1.420000 -3.323200 0.020165 0.997463 
1.430000 -3.323595 0.019384 0.997562 
1.440000 -3.323974 0.018632 0.997657 
1.450000 -3.324339 0.017909 0.997749 
1.460000 -3.324689 0.017215 0.997837 
1.470000 -3.325026 0.016546 0.997921 
1.480000 -3.325350 0.015904 0.998002 
1.490000 -3.325661 0.015286 0.998080 
1.500000 -3.325961 0.014692 0.998155 
1.510000 -3.326249 0.014120 0.998227 
1.520000 -3.326526 0.013570 0.998297 
1.530000 -3.326792 0.013041 0.998363 
1.540000 -3.327048 0.012532 0.998427 
1.550000 -3.327294 0.012044 0.998489 
1.560000 -3.327530 0.011574 0.998548 
1.570000 -3.327757 0.011122 0.998605 
1.580000 -3.327975 0.010688 0.998660 
1.590000 -3.328185 0.010270 0.998712 
1.600000 -3.328387 0.009869 0.998763 
1.610000 -3.328581 0.009483 0.998811 
1.620000 -3.328767 0.009112 0.998858 
1.630000 -3.328946 0.008756 0.998903 
1.640000 -3.329118 0.008413 0.998946 
1.650000 -3.329284 0.008084 0.998987 
1.660000 -3.329442 0.007767 0.999027 
1.670000 -3.329595 0.007463 0.999065 
1.680000 -3.329742 0.007170 0.999102 
1.690000 -3.329883 0.006889 0.999137 
1.700000 -3.330019 0.006619 0.999171 
1.710000 -3.330148 0.006360 0.999203 
1.720000 -3.330273 0.006112 0.999235 
1.730000 -3.330393 0.005873 0.999265 
1.740000 -3.330508 0.005643 0.999293 
1.750000 -3.330619 0.005422 0.999321 
1.760000 -3.330725 0.005210 0.999348 
1.770000 -3.330827 0.005006 0.999373 
1.780000 -3.330926 0.004810 0.999398 
1.790000 -3.331020 0.004622 0.999422 
1.800000 -3.331111 0.004441 0.999444 
1.810000 -3.331198 0.004267 0.999466 
1.820000 -3.331281 0.004100 0.999487 
1.830000 -3.331362 0.003940 0.999507 
1.840000 -3.331439 0.003785 0.999526 
1.850000 -3.331513 0.003637 0.999545 
1.860000 -3.331585 0.003495 0.999563 
1.870000 -3.331653 0.003358 0.999580 
1.880000 -3.331719 0.003226 0.999596 
1.890000 -3.331782 0.003100 0.999612 
1.900000 -3.331843 0.002979 0.999627 
1.910000 -3.331901 0.002863 0.999642 
1.920000 -3.331957 0.002751 0.999656 
1.930000 -3.332011 0.002644 0.999669 
1.940000 -3.332062 0.002541 0.999682 
1.950000 -3.332112 0.002442 0.999695 
1.960000 -3.332159 0.002347 0.999706 
1.970000 -3.332205 0.002256 0.999718 
1.980000 -3.332249 0.002168 0.999729 
1.990000 -3.332291 0.002084 0.999739 
2.000000 -3.332332 0.002003 0.999750 
2.010000 -3.332371 0.001924 0.999759 
2.020000 -3.332409 0.001848 0.999769 
2.030000 -3.332445 0.001776 0.999778 
2.040000 -3.332480 0.001706 0.999787 
2.050000 -3.332514 0.001639 0.999795 
2.060000 -3.332546 0.001575 0.999803 
2.070000 -3.332577 0.001513 0.999811 
2.080000 -3.332606 0.001453 0.999818 
2.090000 -3.332635 0.001396 0.999825 
2.100000 -3.332663 0.001342 0.999832 
2.110000 -3.332689 0.001289 0.999839 
2.120000 -3.332714 0.001239 0.999845 
2.130000 -3.332738 0.001191 0.999851 
2.140000 -3.332761 0.001145 0.999857 
2.150000 -3.332783 0.001100 0.999862 
2.160000 -3.332805 0.001058 0.999868 
2.170000 -3.332825 0.001017 0.999873 
2.180000 -3.332845 0.000977 0.999878 
2.190000 -3.332864 0.000939 0.999883 
2.200000 -3.332882 0.000903 0.999887 
2.210000 -3.332900 0.000867 0.999892 
2.220000 -3.332917 0.000833 0.999896 
2.230000 -3.332934 0.000799 0.999900 
2.240000 -3.332950 0.000768 0.999904 
2.250000 -3.332965 0.000737 0.999908 
2.260000 -3.332980 0.000708 0.999912 
2.270000 -3.332994 0.000680 0.999915 
2.280000 -3.333007 0.000653 0.999918 
2.290000 -3.333020 0.000627 0.999922 
2.300000 -3.333033 0.000602 0.999925 
2.310000 -3.333045 0.000578 0.999928 
2.320000 -3.333056 0.000555 0.999931 
2.330000 -3.333067 0.000533 0.999933 
2.340000 -3.333078 0.000512 0.999936 
2.350000 -3.333088 0.000491 0.999939 
2.360000 -3.333098 0.000472 0.999941 
2.370000 -3.333107 0.000453 0.999943 
2.380000 -3.333116 0.000435 0.999946 
2.390000 -3.333125 0.000418 0.999948 
2.400000 -3.333133 0.000401 0.999950 
2.410000 -3.333141 0.000385 0.999952 
2.420000 -3.333148 0.000370 0.999954 
2.430000 -3.333156 0.000356 0.999956 
2.440000 -3.333163 0.000342 0.999957 
2.450000 -3.333169 0.000328 0.999959 
2.460000 -3.333176 0.000315 0.999961 
2.470000 -3.333182 0.000303 0.999962 
2.480000 -3.333188 0.000291 0.999964 
2.490000 -3.333194 0.000279 0.999965 
2.500000 -3.333199 0.000268 0.999967 
2.510000 -3.333205 0.000258 0.999968 
2.520000 -3.333210 0.000247 0.999969 
2.530000 -3.333215 0.000238 0.999970 
2.540000 -3.333219 0.000228 0.999972 
2.550000 -3.333224 0.000219 0.999973 
2.560000 -3.333228 0.000210 0.999974 
2.570000 -3.333233 0.000202 0.999975 
2.580000 -3.333237 0.000194 0.999976 
2.590000 -3.333240 0.000186 0.999977 
2.600000 -3.333244 0.000179 0.999978 
2.610000 -3.333248 0.000172 0.999979 
2.620000 -3.333251 0.000165 0.999979 
2.630000 -3.333254 0.000158 0.999980 
2.640000 -3.333257 0.000152 0.999981 
2.650000 -3.333260 0.000146 0.999982 
2.660000 -3.333263 0.000141 0.999982 
2.670000 -3.333266 0.000135 0.999983 
2.680000 -3.333269 0.000130 0.999984 
2.690000 -3.333271 0.000125 0.999984 
2.700000 -3.333274 0.000120 0.999985 
2.710000 -3.333276 0.000115 0.999986 
2.720000 -3.333278 0.000111 0.999986 
2.730000 -3.333280 0.000106 0.999987 
2.740000 -3.333282 0.000102 0.999987 
2.750000 -3.333284 0.000098 0.999988 
2.760000 -3.333286 0.000094 0.999988 
2.770000 -3.333288 0.000091 0.999989 
2.780000 -3.333290 0.000087 0.999989 
2.790000 -3.333292 0.000084 0.999990 
2.800000 -3.333293 0.000080 0.999990 
2.810000 -3.333295 0.000077 0.999990 
2.820000 -3.333296 0.000074 0.999991 
2.830000 -3.333298 0.000071 0.999991 
2.840000 -3.333299 0.000068 0.999991 
2.850000 -3.333301 0.000066 0.999992 
2.860000 -3.333302 0.000063 0.999992 
2.870000 -3.333303 0.000061 0.999992 
2.880000 -3.333304 0.000058 0.999993 
2.890000 -3.333305 0.000056 0.999993 
2.900000 -3.333307 0.000054 0.999993 
2.910000 -3.333308 0.000052 0.999994 
2.920000 -3.333309 0.000050 0.999994 
2.930000 -3.333310 0.000048 0.999994 
2.940000 -3.333311 0.000046 0.999994 
2.950000 -3.333311 0.000044 0.999995 
2.960000 -3.333312 0.000042 0.999995 
2.970000 -3.333313 0.000041 0.999995 
2.980000 -3.333314 0.000039 0.999995 
2.990000 -3.333315 0.000038 0.999995 
3.000000 -3.333315 0.000036 0.999996 
3.010000 -3.333316 0.000035 0.999996 
3.020000 -3.333317 0.000034 0.999996 
3.030000 -3.333317 0.000032 0.999996 
3.040000 -3.333318 0.000031 0.999996 
3.050000 -3.333319 0.000030 0.999996 
3.060000 -3.333319 0.000029 0.999997 
3.070000 -3.333320 0.000028 0.999997 
3.080000 -3.333320 0.000027 0.999997 
3.090000 -3.333321 0.000026 0.999997 
3.100000 -3.333321 0.000025 0.999997 
3.110000 -3.333322 0.000024 0.999997 
3.120000 -3.333322 0.000023 0.999997 
3.130000 -3.333323 0.000022 0.999997 
3.140000 -3.333323 0.000021 0.999997 
3.150000 -3.333324 0.000020 0.999998 
3.160000 -3.333324 0.000019 0.999998 
3.170000 -3.333324 0.000018 0.999998 
3.180000 -3.333325 0.000018 0.999998 
3.190000 -3.333325 0.000017 0.999998 
3.200000 -3.333325 0.000016 0.999998 
3.210000 -3.333326 0.000016 0.999998 
3.220000 -3.333326 0.000015 0.999998 
3.230000 -3.333326 0.000014 0.999998 
3.240000 -3.333326 0.000014 0.999998 
3.250000 -3.333327 0.000013 0.999998 
3.260000 -3.333327 0.000013 0.999998 
3.270000 -3.333327 0.000012 0.999998 
3.280000 -3.333327 0.000012 0.999999 
3.290000 -3.333328 0.000011 0.999999 
3.300000 -3.333328 0.000011 0.999999 
3.310000 -3.333328 0.000011 0.999999 
3.320000 -3.333328 0.000010 0.999999 
3.330000 -3.333328 0.000010 0.999999 
3.340000 -3.333329 0.000009 0.999999 
3.350000 -3.333329 0.000009 0.999999 
3.360000 -3.333329 0.000009 0.999999 
3.370000 -3.333329 0.000009 0.999999 
3.380000 -3.333329 0.000008 0.999999 
3.390000 -3.333329 0.000008 0.999999 
3.400000 -3.333330 0.000008 0.999999 
3.410000 -3.333330 0.000007 0.999999 
3.420000 -3.333330 0.000007 0.999999 
3.430000 -3.333330 0.000007 0.999999 
3.440000 -3.333330 0.000007 0.999999 
3.450000 -3.333330 0.000006 0.999999 
3.460000 -3.333330 0.000006 0.999999 
3.470000 -3.333331 0.000006 0.999999 
3.480000 -3.333331 0.000006 0.999999 
3.490000 -3.333331 0.000005 0.999999 
3.500000 -3.333331 0.000005 0.999999 
3.510000 -3.333331 0.000005 0.999999 
3.520000 -3.333331 0.000005 0.999999 
3.530000 -3.333331 0.000005 0.999999 
3.540000 -3.333331 0.000005 0.999999 
3.550000 -3.333331 0.000005 0.999999 
3.560000 -3.333331 0.000005 0.999999 
3.570000 -3.333331 0.000005 1.000000 
3.580000 -3.333331 0.000004 1.000000 
3.590000 -3.333331 0.000004 1.000000 
3.600000 -3.333331 0.000004 1.000000 
3.610000 -3.333331 0.000004 1.000000 
3.620000 -3.333332 0.000004 1.000000 
3.630000 -3.333332 0.000004 1.000000 
3.640000 -3.333332 0.000004 1.000000 
3.650000 -3.333332 0.000004 1.000000 
3.660000 -3.333332 0.000003 1.000000 
3.670000 -3.333332 0.000003 1.000000 
3.680000 -3.333332 0.000003 1.000000 
3.690000 -3.333332 0.000003 1.000000 
3.700000 -3.333332 0.000003 1.000000 
3.710000 -3.333332 0.000003 1.000000 
3.720000 -3.333332 0.000003 1.000000 
3.730000 -3.333332 0.000003 1.000000 
3.740000 -3.333332 0.000003 1.000000 
3.750000 -3.333332 0.000003 1.000000 
3.760000 -3.333332 0.000003 1.000000 
3.770000 -3.333332 0.000003 1.000000 
3.780000 -3.333332 0.000003 1.000000 
3.790000 -3.333332 0.000003 1.000000 
3.800000 -3.333332 0.000003 1.000000 
3.810000 -3.333332 0.000003 1.000000 
3.820000 -3.333332 0.000002 1.000000 
3.830000 -3.333332 0.000002 1.000000 
3.840000 -3.333332 0.000002 1.000000 
3.850000 -3.333332 0.000002 1.000000 
3.860000 -3.333332 0.000002 1.000000 
3.870000 -3.333332 0.000002 1.000000 
3.880000 -3.333332 0.000002 1.000000 
3.890000 -3.333332 0.000002 1.000000 
3.900000 -3.333332 0.000002 1.000000 
3.910000 -3.333333 0.000002 1.000000 
3.920000 -3.333333 0.000002 1.000000 
3.930000 -3.333333 0.000002 1.000000 
3.940000 -3.333333 0.000002 1.000000 
3.950000 -3.333333 0.000002 1.000000 
3.960000 -3.333333 0.000002 1.000000 
3.970000 -3.333333 0.000002 1.000000 
3.980000 -3.333333 0.000002 1.000000 
3.990000 -3.333333 0.000002 1.000000 
4.000000 -3.333333 0.000002 1.000000 
QITE gs wfn 
0011 -0.288702360092 -0.000003044581 I 
0101 0.577607082062 -0.000015598590 I 
0110 -0.288715524238 -0.000010011583 I 
1001 -0.288645311194 0.000047654603 I 
1010 0.577068334705 0.000023033803 I 
1100 -0.288687229929 -0.000062178352 I 
1101 0.000105439328 0.000132088744 I 
