FCI gs energy -5.000000 
FCI gs wfn 
000110 1.000000000000 0.000000000000 I 
FCI ITE
0.000000 -3.000000 1.500000 0.097547 
0.010000 -3.029849 1.484855 0.101437 
0.020000 -3.059392 1.469440 0.105421 
0.030000 -3.088625 1.453783 0.109497 
0.040000 -3.117542 1.437912 0.113665 
0.050000 -3.146140 1.421856 0.117926 
0.060000 -3.174415 1.405639 0.122277 
0.070000 -3.202365 1.389288 0.126718 
0.080000 -3.229986 1.372826 0.131248 
0.090000 -3.257277 1.356276 0.135866 
0.100000 -3.284237 1.339661 0.140572 
0.110000 -3.310864 1.323002 0.145364 
0.120000 -3.337157 1.306318 0.150240 
0.130000 -3.363116 1.289628 0.155200 
0.140000 -3.388742 1.272950 0.160243 
0.150000 -3.414034 1.256299 0.165366 
0.160000 -3.438994 1.239692 0.170568 
0.170000 -3.463622 1.223143 0.175847 
0.180000 -3.487920 1.206664 0.181203 
0.190000 -3.511890 1.190269 0.186633 
0.200000 -3.535532 1.173968 0.192135 
0.210000 -3.558849 1.157772 0.197708 
0.220000 -3.581843 1.141691 0.203349 
0.230000 -3.604517 1.125732 0.209058 
0.240000 -3.626874 1.109903 0.214831 
0.250000 -3.648914 1.094212 0.220668 
0.260000 -3.670643 1.078664 0.226564 
0.270000 -3.692062 1.063265 0.232520 
0.280000 -3.713175 1.048020 0.238532 
0.290000 -3.733984 1.032933 0.244599 
0.300000 -3.754493 1.018007 0.250718 
0.310000 -3.774705 1.003245 0.256886 
0.320000 -3.794624 0.988650 0.263103 
0.330000 -3.814252 0.974224 0.269364 
0.340000 -3.833594 0.959968 0.275669 
0.350000 -3.852652 0.945884 0.282015 
0.360000 -3.871431 0.931971 0.288400 
0.370000 -3.889932 0.918231 0.294820 
0.380000 -3.908161 0.904664 0.301275 
0.390000 -3.926120 0.891269 0.307761 
0.400000 -3.943813 0.878046 0.314276 
0.410000 -3.961243 0.864995 0.320818 
0.420000 -3.978414 0.852114 0.327385 
0.430000 -3.995329 0.839402 0.333974 
0.440000 -4.011991 0.826858 0.340583 
0.450000 -4.028404 0.814481 0.347209 
0.460000 -4.044571 0.802269 0.353851 
0.470000 -4.060496 0.790221 0.360507 
0.480000 -4.076181 0.778335 0.367172 
0.490000 -4.091630 0.766609 0.373847 
0.500000 -4.106847 0.755041 0.380528 
0.510000 -4.121833 0.743630 0.387213 
0.520000 -4.136593 0.732373 0.393900 
0.530000 -4.151129 0.721269 0.400587 
0.540000 -4.165445 0.710315 0.407272 
0.550000 -4.179543 0.699510 0.413952 
0.560000 -4.193426 0.688852 0.420626 
0.570000 -4.207098 0.678338 0.427292 
0.580000 -4.220561 0.667967 0.433948 
0.590000 -4.233817 0.657736 0.440591 
0.600000 -4.246871 0.647644 0.447220 
0.610000 -4.259724 0.637689 0.453833 
0.620000 -4.272379 0.627869 0.460428 
0.630000 -4.284840 0.618182 0.467004 
0.640000 -4.297107 0.608626 0.473558 
0.650000 -4.309186 0.599199 0.480089 
0.660000 -4.321076 0.589900 0.486595 
0.670000 -4.332782 0.580727 0.493075 
0.680000 -4.344306 0.571678 0.499527 
0.690000 -4.355650 0.562751 0.505949 
0.700000 -4.366817 0.553945 0.512340 
0.710000 -4.377809 0.545258 0.518699 
0.720000 -4.388628 0.536689 0.525025 
0.730000 -4.399277 0.528236 0.531315 
0.740000 -4.409758 0.519898 0.537568 
0.750000 -4.420074 0.511672 0.543784 
0.760000 -4.430226 0.503559 0.549961 
0.770000 -4.440217 0.495555 0.556098 
0.780000 -4.450049 0.487661 0.562194 
0.790000 -4.459724 0.479874 0.568248 
0.800000 -4.469245 0.472194 0.574258 
0.810000 -4.478613 0.464618 0.580224 
0.820000 -4.487830 0.457146 0.586144 
0.830000 -4.496899 0.449777 0.592019 
0.840000 -4.505822 0.442509 0.597847 
0.850000 -4.514600 0.435341 0.603626 
0.860000 -4.523236 0.428272 0.609358 
0.870000 -4.531732 0.421301 0.615040 
0.880000 -4.540089 0.414427 0.620672 
0.890000 -4.548309 0.407649 0.626254 
0.900000 -4.556395 0.400965 0.631784 
0.910000 -4.564349 0.394375 0.637263 
0.920000 -4.572171 0.387877 0.642690 
0.930000 -4.579864 0.381471 0.648064 
0.940000 -4.587430 0.375155 0.653384 
0.950000 -4.594871 0.368929 0.658652 
0.960000 -4.602188 0.362791 0.663865 
0.970000 -4.609383 0.356741 0.669024 
0.980000 -4.616458 0.350777 0.674129 
0.990000 -4.623415 0.344899 0.679179 
1.000000 -4.630255 0.339106 0.684174 
1.010000 -4.636980 0.333397 0.689114 
1.020000 -4.643591 0.327770 0.693998 
1.030000 -4.650091 0.322226 0.698827 
1.040000 -4.656481 0.316763 0.703600 
1.050000 -4.662762 0.311380 0.708318 
1.060000 -4.668937 0.306076 0.712980 
1.070000 -4.675006 0.300851 0.717587 
1.080000 -4.680971 0.295703 0.722138 
1.090000 -4.686834 0.290633 0.726633 
1.100000 -4.692597 0.285638 0.731072 
1.110000 -4.698260 0.280718 0.735457 
1.120000 -4.703826 0.275872 0.739785 
1.130000 -4.709296 0.271100 0.744059 
1.140000 -4.714671 0.266400 0.748277 
1.150000 -4.719952 0.261772 0.752441 
1.160000 -4.725142 0.257215 0.756550 
1.170000 -4.730241 0.252727 0.760605 
1.180000 -4.735252 0.248309 0.764605 
1.190000 -4.740174 0.243960 0.768551 
1.200000 -4.745010 0.239678 0.772444 
1.210000 -4.749762 0.235463 0.776283 
1.220000 -4.754429 0.231314 0.780069 
1.230000 -4.759015 0.227230 0.783803 
1.240000 -4.763519 0.223211 0.787484 
1.250000 -4.767944 0.219255 0.791112 
1.260000 -4.772290 0.215362 0.794690 
1.270000 -4.776558 0.211531 0.798215 
1.280000 -4.780751 0.207762 0.801690 
1.290000 -4.784869 0.204053 0.805114 
1.300000 -4.788914 0.200403 0.808488 
1.310000 -4.792886 0.196813 0.811812 
1.320000 -4.796787 0.193281 0.815087 
1.330000 -4.800617 0.189807 0.818313 
1.340000 -4.804379 0.186389 0.821490 
1.350000 -4.808073 0.183027 0.824620 
1.360000 -4.811701 0.179721 0.827702 
1.370000 -4.815263 0.176469 0.830736 
1.380000 -4.818760 0.173271 0.833724 
1.390000 -4.822194 0.170125 0.836666 
1.400000 -4.825565 0.167033 0.839562 
1.410000 -4.828875 0.163992 0.842413 
1.420000 -4.832125 0.161001 0.845219 
1.430000 -4.835316 0.158061 0.847981 
1.440000 -4.838448 0.155171 0.850699 
1.450000 -4.841523 0.152329 0.853374 
1.460000 -4.844542 0.149536 0.856006 
1.470000 -4.847505 0.146790 0.858595 
1.480000 -4.850413 0.144090 0.861143 
1.490000 -4.853269 0.141437 0.863650 
1.500000 -4.856071 0.138830 0.866116 
1.510000 -4.858822 0.136267 0.868541 
1.520000 -4.861522 0.133748 0.870927 
1.530000 -4.864172 0.131272 0.873273 
1.540000 -4.866773 0.128840 0.875581 
1.550000 -4.869326 0.126449 0.877850 
1.560000 -4.871832 0.124100 0.880081 
1.570000 -4.874290 0.121793 0.882275 
1.580000 -4.876704 0.119525 0.884433 
1.590000 -4.879072 0.117297 0.886554 
1.600000 -4.881396 0.115108 0.888639 
1.610000 -4.883676 0.112958 0.890689 
1.620000 -4.885914 0.110846 0.892703 
1.630000 -4.888110 0.108770 0.894684 
1.640000 -4.890265 0.106732 0.896631 
1.650000 -4.892380 0.104730 0.898544 
1.660000 -4.894455 0.102763 0.900424 
1.670000 -4.896491 0.100832 0.902272 
1.680000 -4.898488 0.098934 0.904088 
1.690000 -4.900448 0.097071 0.905873 
1.700000 -4.902371 0.095241 0.907626 
1.710000 -4.904258 0.093444 0.909349 
1.720000 -4.906109 0.091680 0.911041 
1.730000 -4.907926 0.089947 0.912704 
1.740000 -4.909707 0.088245 0.914338 
1.750000 -4.911456 0.086574 0.915943 
1.760000 -4.913171 0.084934 0.917519 
1.770000 -4.914853 0.083323 0.919068 
1.780000 -4.916504 0.081741 0.920589 
1.790000 -4.918123 0.080188 0.922083 
1.800000 -4.919711 0.078664 0.923550 
1.810000 -4.921270 0.077167 0.924992 
1.820000 -4.922798 0.075698 0.926407 
1.830000 -4.924298 0.074255 0.927797 
1.840000 -4.925769 0.072839 0.929162 
1.850000 -4.927212 0.071449 0.930502 
1.860000 -4.928627 0.070085 0.931819 
1.870000 -4.930015 0.068746 0.933111 
1.880000 -4.931377 0.067431 0.934380 
1.890000 -4.932712 0.066141 0.935626 
1.900000 -4.934023 0.064874 0.936849 
1.910000 -4.935308 0.063632 0.938050 
1.920000 -4.936568 0.062412 0.939230 
1.930000 -4.937804 0.061214 0.940387 
1.940000 -4.939017 0.060039 0.941524 
1.950000 -4.940206 0.058886 0.942639 
1.960000 -4.941372 0.057755 0.943734 
1.970000 -4.942516 0.056644 0.944809 
1.980000 -4.943638 0.055554 0.945864 
1.990000 -4.944739 0.054485 0.946900 
2.000000 -4.945818 0.053435 0.947917 
2.010000 -4.946876 0.052406 0.948915 
2.020000 -4.947914 0.051395 0.949894 
2.030000 -4.948932 0.050404 0.950855 
2.040000 -4.949930 0.049431 0.951798 
2.050000 -4.950909 0.048476 0.952724 
2.060000 -4.951870 0.047540 0.953633 
2.070000 -4.952811 0.046621 0.954524 
2.080000 -4.953734 0.045719 0.955399 
2.090000 -4.954640 0.044835 0.956258 
2.100000 -4.955528 0.043967 0.957100 
2.110000 -4.956399 0.043116 0.957927 
2.120000 -4.957253 0.042280 0.958738 
2.130000 -4.958090 0.041461 0.959534 
2.140000 -4.958911 0.040657 0.960316 
2.150000 -4.959717 0.039869 0.961082 
2.160000 -4.960506 0.039095 0.961834 
2.170000 -4.961280 0.038336 0.962572 
2.180000 -4.962040 0.037592 0.963296 
2.190000 -4.962784 0.036861 0.964006 
2.200000 -4.963514 0.036145 0.964703 
2.210000 -4.964230 0.035442 0.965386 
2.220000 -4.964932 0.034753 0.966057 
2.230000 -4.965620 0.034077 0.966715 
2.240000 -4.966295 0.033414 0.967360 
2.250000 -4.966957 0.032763 0.967993 
2.260000 -4.967606 0.032125 0.968615 
2.270000 -4.968242 0.031499 0.969224 
2.280000 -4.968866 0.030886 0.969822 
2.290000 -4.969477 0.030283 0.970408 
2.300000 -4.970077 0.029693 0.970983 
2.310000 -4.970665 0.029114 0.971547 
2.320000 -4.971242 0.028546 0.972101 
2.330000 -4.971807 0.027989 0.972644 
2.340000 -4.972361 0.027442 0.973176 
2.350000 -4.972905 0.026906 0.973699 
2.360000 -4.973438 0.026381 0.974211 
2.370000 -4.973960 0.025866 0.974713 
2.380000 -4.974472 0.025360 0.975206 
2.390000 -4.974975 0.024864 0.975690 
2.400000 -4.975467 0.024378 0.976164 
2.410000 -4.975950 0.023901 0.976629 
2.420000 -4.976423 0.023434 0.977085 
2.430000 -4.976887 0.022975 0.977532 
2.440000 -4.977342 0.022526 0.977971 
2.450000 -4.977788 0.022085 0.978401 
2.460000 -4.978226 0.021652 0.978823 
2.470000 -4.978655 0.021228 0.979237 
2.480000 -4.979075 0.020812 0.979643 
2.490000 -4.979487 0.020405 0.980041 
2.500000 -4.979891 0.020005 0.980431 
2.510000 -4.980287 0.019613 0.980814 
2.520000 -4.980676 0.019228 0.981189 
2.530000 -4.981057 0.018851 0.981557 
2.540000 -4.981430 0.018481 0.981918 
2.550000 -4.981796 0.018119 0.982272 
2.560000 -4.982155 0.017763 0.982620 
2.570000 -4.982506 0.017415 0.982960 
2.580000 -4.982851 0.017073 0.983294 
2.590000 -4.983189 0.016738 0.983621 
2.600000 -4.983521 0.016409 0.983942 
2.610000 -4.983846 0.016087 0.984257 
2.620000 -4.984164 0.015771 0.984566 
2.630000 -4.984477 0.015461 0.984868 
2.640000 -4.984783 0.015157 0.985165 
2.650000 -4.985083 0.014860 0.985456 
2.660000 -4.985377 0.014568 0.985742 
2.670000 -4.985666 0.014281 0.986022 
2.680000 -4.985949 0.014001 0.986296 
2.690000 -4.986226 0.013725 0.986565 
2.700000 -4.986498 0.013455 0.986829 
2.710000 -4.986764 0.013191 0.987088 
2.720000 -4.987025 0.012931 0.987341 
2.730000 -4.987281 0.012677 0.987590 
2.740000 -4.987532 0.012428 0.987834 
2.750000 -4.987778 0.012183 0.988073 
2.760000 -4.988020 0.011943 0.988307 
2.770000 -4.988256 0.011708 0.988537 
2.780000 -4.988488 0.011478 0.988762 
2.790000 -4.988715 0.011252 0.988983 
2.800000 -4.988938 0.011030 0.989200 
2.810000 -4.989157 0.010813 0.989413 
2.820000 -4.989371 0.010600 0.989621 
2.830000 -4.989581 0.010391 0.989825 
2.840000 -4.989786 0.010187 0.990025 
2.850000 -4.989988 0.009986 0.990222 
2.860000 -4.990186 0.009789 0.990414 
2.870000 -4.990380 0.009596 0.990603 
2.880000 -4.990570 0.009407 0.990788 
2.890000 -4.990756 0.009222 0.990969 
2.900000 -4.990939 0.009040 0.991147 
2.910000 -4.991118 0.008862 0.991321 
2.920000 -4.991293 0.008687 0.991492 
2.930000 -4.991465 0.008516 0.991660 
2.940000 -4.991634 0.008348 0.991824 
2.950000 -4.991799 0.008183 0.991985 
2.960000 -4.991961 0.008022 0.992143 
2.970000 -4.992120 0.007864 0.992298 
2.980000 -4.992276 0.007709 0.992450 
2.990000 -4.992428 0.007557 0.992598 
3.000000 -4.992578 0.007408 0.992744 
3.010000 -4.992725 0.007262 0.992887 
3.020000 -4.992869 0.007118 0.993028 
3.030000 -4.993009 0.006978 0.993165 
3.040000 -4.993148 0.006840 0.993300 
3.050000 -4.993283 0.006705 0.993432 
3.060000 -4.993416 0.006573 0.993561 
3.070000 -4.993546 0.006443 0.993688 
3.080000 -4.993674 0.006316 0.993813 
3.090000 -4.993799 0.006191 0.993935 
3.100000 -4.993921 0.006069 0.994055 
3.110000 -4.994041 0.005949 0.994172 
3.120000 -4.994159 0.005832 0.994287 
3.130000 -4.994275 0.005717 0.994400 
3.140000 -4.994388 0.005604 0.994510 
3.150000 -4.994499 0.005493 0.994618 
3.160000 -4.994608 0.005385 0.994725 
3.170000 -4.994714 0.005278 0.994829 
3.180000 -4.994819 0.005174 0.994931 
3.190000 -4.994921 0.005072 0.995031 
3.200000 -4.995022 0.004972 0.995129 
3.210000 -4.995120 0.004874 0.995225 
3.220000 -4.995217 0.004777 0.995319 
3.230000 -4.995311 0.004683 0.995412 
3.240000 -4.995404 0.004590 0.995502 
3.250000 -4.995495 0.004500 0.995591 
3.260000 -4.995584 0.004411 0.995678 
3.270000 -4.995671 0.004324 0.995764 
3.280000 -4.995757 0.004238 0.995847 
3.290000 -4.995841 0.004155 0.995929 
3.300000 -4.995923 0.004072 0.996010 
3.310000 -4.996004 0.003992 0.996089 
3.320000 -4.996083 0.003913 0.996166 
3.330000 -4.996160 0.003836 0.996242 
3.340000 -4.996236 0.003760 0.996316 
3.350000 -4.996311 0.003686 0.996389 
3.360000 -4.996384 0.003613 0.996460 
3.370000 -4.996455 0.003541 0.996530 
3.380000 -4.996525 0.003471 0.996598 
3.390000 -4.996594 0.003403 0.996666 
3.400000 -4.996662 0.003336 0.996732 
3.410000 -4.996728 0.003270 0.996796 
3.420000 -4.996792 0.003205 0.996859 
3.430000 -4.996856 0.003142 0.996922 
3.440000 -4.996918 0.003080 0.996982 
3.450000 -4.996979 0.003019 0.997042 
3.460000 -4.997039 0.002959 0.997100 
3.470000 -4.997097 0.002900 0.997158 
3.480000 -4.997155 0.002843 0.997214 
3.490000 -4.997211 0.002787 0.997269 
3.500000 -4.997266 0.002732 0.997323 
3.510000 -4.997320 0.002678 0.997376 
3.520000 -4.997373 0.002625 0.997428 
3.530000 -4.997425 0.002573 0.997479 
3.540000 -4.997476 0.002522 0.997529 
3.550000 -4.997526 0.002472 0.997577 
3.560000 -4.997575 0.002423 0.997625 
3.570000 -4.997623 0.002375 0.997672 
3.580000 -4.997670 0.002328 0.997718 
3.590000 -4.997716 0.002282 0.997763 
3.600000 -4.997762 0.002237 0.997808 
3.610000 -4.997806 0.002193 0.997851 
3.620000 -4.997849 0.002150 0.997893 
3.630000 -4.997892 0.002107 0.997935 
3.640000 -4.997934 0.002065 0.997976 
3.650000 -4.997974 0.002024 0.998016 
3.660000 -4.998015 0.001984 0.998055 
3.670000 -4.998054 0.001945 0.998094 
3.680000 -4.998092 0.001907 0.998131 
3.690000 -4.998130 0.001869 0.998168 
3.700000 -4.998167 0.001832 0.998205 
3.710000 -4.998203 0.001796 0.998240 
3.720000 -4.998239 0.001760 0.998275 
3.730000 -4.998274 0.001725 0.998309 
3.740000 -4.998308 0.001691 0.998342 
3.750000 -4.998341 0.001658 0.998375 
3.760000 -4.998374 0.001625 0.998407 
3.770000 -4.998406 0.001593 0.998439 
3.780000 -4.998438 0.001561 0.998470 
3.790000 -4.998469 0.001530 0.998500 
3.800000 -4.998499 0.001500 0.998530 
3.810000 -4.998529 0.001471 0.998559 
3.820000 -4.998558 0.001441 0.998587 
3.830000 -4.998587 0.001413 0.998615 
3.840000 -4.998615 0.001385 0.998643 
3.850000 -4.998642 0.001358 0.998670 
3.860000 -4.998669 0.001331 0.998696 
3.870000 -4.998695 0.001304 0.998722 
3.880000 -4.998721 0.001279 0.998747 
3.890000 -4.998746 0.001253 0.998772 
3.900000 -4.998771 0.001228 0.998796 
3.910000 -4.998796 0.001204 0.998820 
3.920000 -4.998819 0.001180 0.998843 
3.930000 -4.998843 0.001157 0.998866 
3.940000 -4.998866 0.001134 0.998889 
3.950000 -4.998888 0.001112 0.998911 
3.960000 -4.998910 0.001090 0.998932 
3.970000 -4.998932 0.001068 0.998953 
3.980000 -4.998953 0.001047 0.998974 
3.990000 -4.998974 0.001026 0.998994 
4.000000 -4.998994 0.001006 0.999014 
4.010000 -4.999014 0.000986 0.999034 
4.020000 -4.999033 0.000966 0.999053 
4.030000 -4.999052 0.000947 0.999072 
4.040000 -4.999071 0.000929 0.999090 
4.050000 -4.999090 0.000910 0.999108 
4.060000 -4.999108 0.000892 0.999126 
4.070000 -4.999125 0.000875 0.999143 
4.080000 -4.999143 0.000857 0.999160 
4.090000 -4.999160 0.000840 0.999176 
4.100000 -4.999176 0.000824 0.999193 
4.110000 -4.999193 0.000807 0.999209 
4.120000 -4.999209 0.000791 0.999224 
4.130000 -4.999224 0.000776 0.999240 
4.140000 -4.999240 0.000760 0.999255 
4.150000 -4.999255 0.000745 0.999270 
4.160000 -4.999269 0.000731 0.999284 
4.170000 -4.999284 0.000716 0.999298 
4.180000 -4.999298 0.000702 0.999312 
4.190000 -4.999312 0.000688 0.999326 
4.200000 -4.999326 0.000674 0.999339 
4.210000 -4.999339 0.000661 0.999352 
4.220000 -4.999352 0.000648 0.999365 
4.230000 -4.999365 0.000635 0.999378 
4.240000 -4.999377 0.000623 0.999390 
4.250000 -4.999390 0.000610 0.999402 
4.260000 -4.999402 0.000598 0.999414 
4.270000 -4.999414 0.000586 0.999425 
4.280000 -4.999425 0.000575 0.999437 
4.290000 -4.999437 0.000563 0.999448 
4.300000 -4.999448 0.000552 0.999459 
4.310000 -4.999459 0.000541 0.999470 
4.320000 -4.999469 0.000531 0.999480 
4.330000 -4.999480 0.000520 0.999490 
4.340000 -4.999490 0.000510 0.999500 
4.350000 -4.999500 0.000500 0.999510 
4.360000 -4.999510 0.000490 0.999520 
4.370000 -4.999520 0.000480 0.999529 
4.380000 -4.999529 0.000471 0.999539 
4.390000 -4.999539 0.000461 0.999548 
4.400000 -4.999548 0.000452 0.999557 
4.410000 -4.999557 0.000443 0.999566 
4.420000 -4.999566 0.000434 0.999574 
4.430000 -4.999574 0.000426 0.999583 
4.440000 -4.999583 0.000417 0.999591 
4.450000 -4.999591 0.000409 0.999599 
4.460000 -4.999599 0.000401 0.999607 
4.470000 -4.999607 0.000393 0.999615 
4.480000 -4.999615 0.000385 0.999622 
4.490000 -4.999622 0.000378 0.999630 
4.500000 -4.999630 0.000370 0.999637 
4.510000 -4.999637 0.000363 0.999644 
4.520000 -4.999644 0.000356 0.999651 
4.530000 -4.999651 0.000349 0.999658 
4.540000 -4.999658 0.000342 0.999665 
4.550000 -4.999665 0.000335 0.999672 
4.560000 -4.999672 0.000328 0.999678 
4.570000 -4.999678 0.000322 0.999685 
4.580000 -4.999685 0.000315 0.999691 
4.590000 -4.999691 0.000309 0.999697 
4.600000 -4.999697 0.000303 0.999703 
4.610000 -4.999703 0.000297 0.999709 
4.620000 -4.999709 0.000291 0.999715 
4.630000 -4.999715 0.000285 0.999720 
4.640000 -4.999720 0.000280 0.999726 
4.650000 -4.999726 0.000274 0.999731 
4.660000 -4.999731 0.000269 0.999737 
4.670000 -4.999736 0.000263 0.999742 
4.680000 -4.999742 0.000258 0.999747 
4.690000 -4.999747 0.000253 0.999752 
4.700000 -4.999752 0.000248 0.999757 
4.710000 -4.999757 0.000243 0.999762 
4.720000 -4.999762 0.000238 0.999766 
4.730000 -4.999766 0.000234 0.999771 
4.740000 -4.999771 0.000229 0.999775 
4.750000 -4.999775 0.000225 0.999780 
4.760000 -4.999780 0.000220 0.999784 
4.770000 -4.999784 0.000216 0.999789 
4.780000 -4.999789 0.000211 0.999793 
4.790000 -4.999793 0.000207 0.999797 
4.800000 -4.999797 0.000203 0.999801 
4.810000 -4.999801 0.000199 0.999805 
4.820000 -4.999805 0.000195 0.999809 
4.830000 -4.999809 0.000191 0.999812 
4.840000 -4.999812 0.000188 0.999816 
4.850000 -4.999816 0.000184 0.999820 
4.860000 -4.999820 0.000180 0.999823 
4.870000 -4.999823 0.000177 0.999827 
4.880000 -4.999827 0.000173 0.999830 
4.890000 -4.999830 0.000170 0.999834 
4.900000 -4.999834 0.000166 0.999837 
4.910000 -4.999837 0.000163 0.999840 
4.920000 -4.999840 0.000160 0.999843 
4.930000 -4.999843 0.000157 0.999846 
4.940000 -4.999846 0.000154 0.999849 
4.950000 -4.999849 0.000151 0.999852 
4.960000 -4.999852 0.000148 0.999855 
4.970000 -4.999855 0.000145 0.999858 
4.980000 -4.999858 0.000142 0.999861 
4.990000 -4.999861 0.000139 0.999864 
5.000000 -4.999864 0.000136 0.999867 
5.010000 -4.999867 0.000133 0.999869 
5.020000 -4.999869 0.000131 0.999872 
5.030000 -4.999872 0.000128 0.999874 
5.040000 -4.999874 0.000126 0.999877 
5.050000 -4.999877 0.000123 0.999879 
5.060000 -4.999879 0.000121 0.999882 
5.070000 -4.999882 0.000118 0.999884 
5.080000 -4.999884 0.000116 0.999886 
5.090000 -4.999886 0.000114 0.999888 
5.100000 -4.999888 0.000112 0.999891 
5.110000 -4.999891 0.000109 0.999893 
5.120000 -4.999893 0.000107 0.999895 
5.130000 -4.999895 0.000105 0.999897 
5.140000 -4.999897 0.000103 0.999899 
5.150000 -4.999899 0.000101 0.999901 
5.160000 -4.999901 0.000099 0.999903 
5.170000 -4.999903 0.000097 0.999905 
5.180000 -4.999905 0.000095 0.999907 
5.190000 -4.999907 0.000093 0.999909 
5.200000 -4.999909 0.000091 0.999911 
5.210000 -4.999911 0.000089 0.999912 
5.220000 -4.999912 0.000088 0.999914 
5.230000 -4.999914 0.000086 0.999916 
